dataset,file_path,ts2i_transformation_pretty_name,model,latent_dim,window_length,stride,image_size,epochs,learning_rate,train_losses,val_losses,AUC_PR,AUC_ROC,VUS_PR,VUS_ROC,Standard_F1,PA_F1,Event_F1,R_F1,Affiliation_F,training_time_s,device
MITDB,175_MITDB_id_6_Medical_tr_27274_1st_27374,RN,cnn_autoencoder,128,83,83,64,150,0.001,"[0.20397477746009826, 0.19138094484806062, 0.1824760615825653, 0.1736246556043625, 0.1659279078245163, 0.1595681518316269, 0.15299732685089112, 0.1475002646446228, 0.14195319414138793, 0.13779385685920714, 0.13231906592845916, 0.1279918521642685, 0.12368704676628113, 0.11986160129308701, 0.11596759557723998, 0.11262147277593612, 0.1090109795331955, 0.10591042190790176, 0.10282377302646636, 0.09962686151266098, 0.09627999812364578, 0.09387443661689758, 0.09077944308519363, 0.08817684501409531, 0.0850074291229248, 0.08223662376403809, 0.07969141453504562, 0.07729949355125428, 0.0748729020357132, 0.07205043286085129, 0.06970470249652863, 0.06760780066251755, 0.06542021483182907, 0.06333950087428093, 0.061284611374139784, 0.05910070836544037, 0.05705145001411438, 0.05499199703335762, 0.05335329622030258, 0.05133245512843132, 0.04960480332374573, 0.04762105345726013, 0.045978712290525435, 0.04436541274189949, 0.043148817121982576, 0.04153689742088318, 0.04027965217828751, 0.038700973987579344, 0.03715649992227554, 0.035657777637243274, 0.03413844779133797, 0.03298290893435478, 0.03234290629625321, 0.030890242382884025, 0.02974969632923603, 0.028727004677057265, 0.027783600613474846, 0.02679360881447792, 0.026491939276456832, 0.025258315727114677, 0.024376360327005388, 0.02363813929259777, 0.022906409576535225, 0.022137048840522765, 0.02155486084520817, 0.02054048255085945, 0.020199012011289597, 0.019369615614414214, 0.018864747136831284, 0.018429994583129883, 0.018016236647963525, 0.01739915907382965, 0.016904793679714203, 0.01656716354191303, 0.015787274949252604, 0.015401690825819969, 0.015050461143255233, 0.014394879527390003, 0.014289975911378861, 0.013988303020596504, 0.013683801516890526, 0.013037273660302162, 0.01292615346610546, 0.012554574199020863, 0.012375171482563018, 0.01228484846651554, 0.011779229901731015, 0.011494516208767892, 0.011051780171692371, 0.01070336289703846, 0.010706457123160363, 0.010541192814707756, 0.01046198457479477, 0.010114309005439281, 0.009766606613993645, 0.009608977288007737, 0.009515625052154064, 0.009386681951582432, 0.009145811013877393, 0.009322105161845683, 0.009613212943077088, 0.009129951521754266, 0.008859177492558956, 0.008521477878093719, 0.008464429713785648, 0.008079157397150993, 0.007763855718076229, 0.007546209823340177, 0.007401225250214338, 0.00729868384078145, 0.007137100771069526, 0.0072585586458444595, 0.006768881622701883, 0.006581421662122011, 0.006531698256731033, 0.00629128348082304, 0.006218130514025688, 0.006084498204290867, 0.006020963005721569, 0.006128880847245455, 0.006380552239716053, 0.006107604410499334, 0.006147152092307806, 0.005852442141622305, 0.00593325300142169, 0.005773503985255957, 0.005730448197573424, 0.005597876384854317, 0.0054659823887050155, 0.005657787155359984, 0.005991582944989205, 0.005492546875029802, 0.005943614803254604, 0.005705119203776121, 0.006127032078802585, 0.005816549435257912, 0.005525408592075109, 0.00525932814925909, 0.0050486459396779535, 0.005004550516605377, 0.00497825751081109, 0.004683326557278633, 0.0046643479727208614, 0.004615573491901159, 0.004392501153051853, 0.004395869094878435, 0.004240619577467441, 0.004206364881247282, 0.00420488016679883, 0.004101275373250246]","[0.19969042390584946, 0.1979323849081993, 0.19462180882692337, 0.1892089992761612, 0.18137117475271225, 0.17177698016166687, 0.16197112202644348, 0.1527419090270996, 0.14453304558992386, 0.13728493452072144, 0.13192470371723175, 0.12681636959314346, 0.12216279655694962, 0.11815223097801208, 0.11450902372598648, 0.11090576276183128, 0.10741914063692093, 0.10436155274510384, 0.10106366127729416, 0.09758380427956581, 0.09454831853508949, 0.09165175259113312, 0.08844303339719772, 0.08539906144142151, 0.08262130245566368, 0.08020646497607231, 0.07763085886836052, 0.07560854405164719, 0.07246873527765274, 0.07046426087617874, 0.06793633475899696, 0.06552975997328758, 0.0633416697382927, 0.06109317019581795, 0.058885358273983, 0.05644744634628296, 0.054877620190382004, 0.05300787836313248, 0.0513126477599144, 0.04987426660954952, 0.04794216528534889, 0.045828454196453094, 0.04463738761842251, 0.04288122616708279, 0.04170960560441017, 0.04034288972616196, 0.03947875462472439, 0.038296427577733994, 0.035959359258413315, 0.0344107560813427, 0.033296745270490646, 0.03214485943317413, 0.031595271080732346, 0.0302405571565032, 0.029239880852401257, 0.028144128620624542, 0.0273060230538249, 0.026589996181428432, 0.025535413064062595, 0.024585402570664883, 0.023957625962793827, 0.02310178242623806, 0.02247577253729105, 0.021628227084875107, 0.020593835972249508, 0.020348669961094856, 0.0192148694768548, 0.0187391834333539, 0.018310949206352234, 0.018013753928244114, 0.01719158049672842, 0.016745504923164845, 0.016041303984820843, 0.01576348626986146, 0.015448407735675573, 0.015136085450649261, 0.014623349066823721, 0.01448394125327468, 0.013953217305243015, 0.014073405414819717, 0.01342615531757474, 0.012925419490784407, 0.012399413157254457, 0.012718969024717808, 0.012380876578390598, 0.011931031942367554, 0.01150768157094717, 0.0112523902207613, 0.010798661969602108, 0.010646009352058172, 0.010340121574699879, 0.010507578495889902, 0.010119369253516197, 0.009693549014627934, 0.009646937251091003, 0.009403211530297995, 0.009382850490510464, 0.009198422078043222, 0.009343556594103575, 0.009041093289852142, 0.009104175493121147, 0.008615869097411633, 0.00868633110076189, 0.008281467948108912, 0.008083437569439411, 0.007852224167436361, 0.007792025106027722, 0.007395549910143018, 0.00740474252961576, 0.007286990527063608, 0.007077444344758987, 0.006985300686210394, 0.007067059399560094, 0.0067737295757979155, 0.006526845972985029, 0.00629153149202466, 0.006365490611642599, 0.006332790479063988, 0.0065237421076744795, 0.006220667855814099, 0.0062428361270576715, 0.0060048571322113276, 0.006064561661332846, 0.006304690381512046, 0.005986644420772791, 0.005821480881422758, 0.005746929440647364, 0.0054744204971939325, 0.005509478040039539, 0.0054022264666855335, 0.005648955935612321, 0.005966682452708483, 0.005805426510050893, 0.0059227594174444675, 0.005917005240917206, 0.005745273316279054, 0.005241878563538194, 0.005099088419228792, 0.005269058281555772, 0.005516693694517016, 0.004877712111920118, 0.005256482865661383, 0.0046517387963831425, 0.004631083458662033, 0.004909609444439411, 0.004451062995940447, 0.0043687219731509686, 0.0044479581993073225, 0.0042558638378977776, 0.004245740827172995]",0.020998296952233937,0.3338777525919404,0.025046418723370916,0.31284688048869513,0.05651633892977636,0.12480602464628024,0.05612238514663191,0.16837653827801427,0.6794440259826149,47.81421761098318,cuda
MITDB,175_MITDB_id_6_Medical_tr_27274_1st_27374,RN,resnet18_autoencoder_frozen,128,83,83,64,100,0.001,"[0.20673149526119233, 0.19046290814876557, 0.1848954290151596, 0.17902674078941344, 0.17402310967445372, 0.17010222971439362, 0.16659581661224365, 0.1642162710428238, 0.16255102455615997, 0.16065268218517303, 0.15966452658176422, 0.1589399129152298, 0.15803525745868682, 0.15717653334140777, 0.1564525306224823, 0.15552749931812287, 0.1537509799003601, 0.15167762637138366, 0.14912958741188048, 0.14578936696052552, 0.13972290158271788, 0.13583336174488067, 0.13523100316524506, 0.12531322240829468, 0.11876314282417297, 0.11138370782136917, 0.10696320682764053, 0.09736283421516419, 0.0921814501285553, 0.08709556758403778, 0.08498113304376602, 0.07817337960004807, 0.07191572487354278, 0.0682637259364128, 0.06215683296322823, 0.05818096920847893, 0.052255839109420776, 0.05073619708418846, 0.04871702715754509, 0.04421428591012955, 0.041093560308218, 0.03638460114598274, 0.03410443812608719, 0.030323739722371103, 0.030717269331216813, 0.029644377529621124, 0.025541554391384124, 0.023182615637779236, 0.020202021673321725, 0.019488782808184623, 0.017295964062213898, 0.015716364793479442, 0.014695029146969319, 0.013541458174586296, 0.012346429005265235, 0.011342289671301842, 0.012324074096977711, 0.012728716991841794, 0.011131290718913079, 0.010635271854698657, 0.009322128631174565, 0.008801057189702987, 0.008600770123302936, 0.009294918365776539, 0.008460144326090813, 0.008840246684849262, 0.008126818574965, 0.007974434364587068, 0.011228349059820175, 0.015318246278911828, 0.0126324150711298, 0.01430310346186161, 0.010492600873112679, 0.009829688165336848, 0.007694972027093172, 0.008080722391605377, 0.00873944852501154, 0.008929958380758763, 0.006489371787756682, 0.0058974167332053185, 0.005395263805985451, 0.004968070704489946, 0.0047173709608614445, 0.004478193819522858, 0.004268716461956501, 0.004341961862519383, 0.004401958687230945, 0.005477268528193235, 0.004896403290331364, 0.0047141722403466705, 0.008324451744556427, 0.005497113801538944, 0.009388188738375903, 0.004578346572816372, 0.004133659228682518, 0.004265274526551366, 0.004188672173768282, 0.0035618805326521398, 0.0034259256441146134, 0.004519081488251686]","[0.19361160695552826, 0.19078662991523743, 0.18758778274059296, 0.18371634930372238, 0.17829908430576324, 0.1732599288225174, 0.16863840073347092, 0.16552646458148956, 0.16364739835262299, 0.16236350685358047, 0.16121914982795715, 0.16058166325092316, 0.1595281958580017, 0.15907394140958786, 0.1584562137722969, 0.1577186957001686, 0.15676724910736084, 0.15492285043001175, 0.15191172808408737, 0.1479211002588272, 0.14287669956684113, 0.1347680613398552, 0.12805762887001038, 0.12269749492406845, 0.11409180238842964, 0.10646569356322289, 0.09941577911376953, 0.09303871914744377, 0.08847826719284058, 0.08184806257486343, 0.07566503807902336, 0.07033833116292953, 0.06654238142073154, 0.06198727339506149, 0.05746414698660374, 0.05302833579480648, 0.048894088715314865, 0.04511750862002373, 0.0426867101341486, 0.03888134844601154, 0.03575931303203106, 0.03259030357003212, 0.030309859663248062, 0.027284108102321625, 0.026017438620328903, 0.024557823315262794, 0.022717797197401524, 0.02089530136436224, 0.018943607807159424, 0.017113935202360153, 0.015468413475900888, 0.014398171566426754, 0.012879499699920416, 0.012708081863820553, 0.011081790551543236, 0.010104392189532518, 0.010337692219763994, 0.01034641359001398, 0.010857393965125084, 0.009321865625679493, 0.008511739782989025, 0.00789671577513218, 0.007342196069657803, 0.007981720380485058, 0.007766530616208911, 0.007048401283100247, 0.00687878648750484, 0.006993665359914303, 0.007480439729988575, 0.010061944834887981, 0.010530649684369564, 0.010501824785023928, 0.008714728988707066, 0.007176742888987064, 0.00626065325923264, 0.005761455511674285, 0.005734225269407034, 0.005773660959675908, 0.0055168860126286745, 0.005155610153451562, 0.00465834722854197, 0.004346137284301221, 0.0041493624448776245, 0.003933236468583345, 0.003699393942952156, 0.0037188376300036907, 0.003608998842537403, 0.0036913424264639616, 0.003921971307136118, 0.004089283058419824, 0.0039189637172967196, 0.00422467035241425, 0.0040531851118430495, 0.003682859009131789, 0.0034159645438194275, 0.0032528674928471446, 0.0031370536889880896, 0.0030686535174027085, 0.002985936589539051, 0.0029311501421034336]",0.027857107089445582,0.3942167047961303,0.02938238423376788,0.35606239401730055,0.05662635137820352,0.22552125543358137,0.10526315789473635,0.06087751399255638,0.6802188221009087,42.68715868401341,cuda
MITDB,175_MITDB_id_6_Medical_tr_27274_1st_27374,RN,resnet18_autoencoder_progressive_unfreeze,128,83,83,64,150,0.001,"[0.1966383159160614, 0.17836465835571289, 0.16756536662578583, 0.16081210672855378, 0.15543818473815918, 0.1504796028137207, 0.14419972896575928, 0.13821550607681274, 0.13086665272712708, 0.12364116907119752, 0.11914941370487213, 0.11197921335697174, 0.10908187776803971, 0.10176701992750167, 0.09651544094085693, 0.09043144285678864, 0.08619157671928405, 0.0809671625494957, 0.07686731368303298, 0.07196153998374939, 0.07743739783763885, 0.07018087059259415, 0.06234060227870941, 0.05632134899497032, 0.05936770662665367, 0.04976148009300232, 0.045477640628814694, 0.04156094118952751, 0.03816847056150437, 0.03528709784150123, 0.03587698675692082, 0.033182243257761, 0.030046897754073144, 0.02751673646271229, 0.025164321810007096, 0.02408515438437462, 0.02107749879360199, 0.018900299072265626, 0.018936222046613695, 0.020765605568885803, 0.021182826533913613, 0.019436886161565782, 0.016969072818756103, 0.01833694111555815, 0.026284844242036344, 0.02490926254540682, 0.020110060274600983, 0.01785103268921375, 0.014290607161819934, 0.017151094041764736, 0.013500230759382248, 0.01681313682347536, 0.02915903925895691, 0.01606773119419813, 0.013044720515608788, 0.01548090036958456, 0.015531301498413086, 0.01241515763103962, 0.010112833045423032, 0.008488276228308677, 0.01171151977032423, 0.010448400769382716, 0.013659157045185565, 0.010042575187981129, 0.011817835737019777, 0.00844845175743103, 0.019567179773002864, 0.007688824087381363, 0.006956430524587632, 0.006628589052706957, 0.010077463183552026, 0.005840991158038378, 0.007112094946205616, 0.006066975742578506, 0.005789934005588293, 0.004449426010251045, 0.00885579683817923, 0.005775988660752773, 0.01621544696390629, 0.005078471265733242, 0.0053054002113640305, 0.004536042921245098, 0.00443442389369011, 0.0077771431300789114, 0.004569173790514469, 0.0047436215914785865, 0.004617779469117522, 0.0111975587438792, 0.004645617213100195, 0.00491297896951437, 0.004126808559522033, 0.004296621587127447, 0.0040774566121399404, 0.003344563115388155, 0.005078225769102574, 0.004939483944326639, 0.0034253427758812903, 0.003267180547118187, 0.0029060450848191976, 0.0031399966683238745, 0.0029372827615588904, 0.0027329753618687393, 0.0027359907049685716, 0.0026545723900198936, 0.002620773622766137, 0.0033307062927633523, 0.0025236218236386774, 0.002588842436671257, 0.0024938192684203385, 0.00253513203933835, 0.002767994813621044, 0.0033868087455630304, 0.003445485606789589, 0.004069711081683636, 0.002637594658881426, 0.002873083343729377, 0.0024914296343922617, 0.002352696005254984, 0.002652645902708173, 0.0023750192020088436, 0.0022440002299845218, 0.0026878888253122567, 0.0022336799651384355, 0.002262332639656961, 0.0022033817367628217, 0.0030503003858029843, 0.002146968408487737, 0.002121352171525359, 0.0020812753355130553, 0.0022747566690668464, 0.0023889063391834497, 0.002263319864869118, 0.002349316840991378, 0.002127624745480716, 0.0020195713499560953, 0.002484785090200603, 0.002182790823280811, 0.002249814453534782, 0.0020119670080021024, 0.008998589962720871, 0.002559446170926094, 0.004895394155755639, 0.002368006436154246, 0.0035983202513307335]","[0.19406142085790634, 0.18892912566661835, 0.17987416684627533, 0.17096245288848877, 0.1654234230518341, 0.1629076600074768, 0.16164827346801758, 0.160348080098629, 0.15852174162864685, 0.15324793756008148, 0.1461678370833397, 0.1369902417063713, 0.11738119274377823, 0.10114274173974991, 0.09133796393871307, 0.08518780022859573, 0.07912354543805122, 0.0743083730340004, 0.06965328752994537, 0.06578042358160019, 0.07273109257221222, 0.061684733256697655, 0.056263698264956474, 0.05205109342932701, 0.04739314131438732, 0.044492730870842934, 0.04076620191335678, 0.037786681205034256, 0.03416170924901962, 0.031151913106441498, 0.028916106559336185, 0.027791140601038933, 0.026673940010368824, 0.02441575936973095, 0.022166598588228226, 0.01952934730798006, 0.018207804299890995, 0.016378828790038824, 0.015146691352128983, 0.015173129737377167, 0.015869304537773132, 0.01524090301245451, 0.014972616918385029, 0.013502785004675388, 0.013658994808793068, 0.015258697792887688, 0.014490228611975908, 0.012961321510374546, 0.012155026197433472, 0.011047254782170057, 0.010660839267075062, 0.011553972493857145, 0.01433546794578433, 0.013413440901786089, 0.011096402071416378, 0.009879208635538816, 0.009813546668738127, 0.01036812737584114, 0.00816914881579578, 0.007267901441082358, 0.006919265724718571, 0.007732037920504808, 0.013403929304331541, 0.008896264247596264, 0.007912708213552833, 0.008015936240553856, 0.007533946773037314, 0.00737624685280025, 0.006205729208886623, 0.005143498070538044, 0.0048082026187330484, 0.004998279036954045, 0.004634543787688017, 0.004703187849372625, 0.004225849988870323, 0.004086097585968673, 0.004090741975232959, 0.004329817136749625, 0.004411374451592565, 0.004779030103236437, 0.004174156812950969, 0.0038912006421014667, 0.003529220586642623, 0.003742577158845961, 0.004477232927456498, 0.0038789401296526194, 0.003800505888648331, 0.0037025134079158306, 0.004141311859712005, 0.0034453972475603223, 0.0031733924988657236, 0.003047505160793662, 0.0029609655030071735, 0.002790216589346528, 0.00264530791901052, 0.0027296020416542888, 0.0027414457872509956, 0.002675205818377435, 0.0025548103731125593, 0.0024445154704153538, 0.0024284105747938156, 0.0024131907848641276, 0.0023245690390467644, 0.002260556211695075, 0.0021612438140437007, 0.002157346811145544, 0.00216688314685598, 0.0021209544502198696, 0.0021077552810311317, 0.002049206814263016, 0.00203318044077605, 0.002050630748271942, 0.0021370761678554118, 0.0021389200119301677, 0.002180643961764872, 0.0022134438040666282, 0.002143613121006638, 0.002037568250671029, 0.002027693553827703, 0.0019350125803612173, 0.0019150953739881516, 0.0018679294153116643, 0.0018416346283629537, 0.0018395602819509804, 0.0018470033537596464, 0.001853848632890731, 0.0018350100726820529, 0.001820382196456194, 0.0018196359160356224, 0.0017975930823013186, 0.0017621330334804952, 0.0017763694049790502, 0.0017565760063007474, 0.001722905901260674, 0.0017174442182295024, 0.0017303500790148973, 0.0017154354136437178, 0.0017208837671205401, 0.0017000566003844142, 0.0018079425790347159, 0.0021205321536399424, 0.0021880717831663787, 0.0020143226720392704, 0.0020185397006571293]",0.023489725926639345,0.3535951565151171,0.02649648547457609,0.3254940060841147,0.05651633892977636,0.1761091662499107,0.08945748364755639,0.3505829900978043,0.6808398225288663,62.30219155619852,cuda
MITDB,175_MITDB_id_6_Medical_tr_27274_1st_27374,RN,resnet18_autoencoder_differential_lr,128,83,83,64,100,0.001,"[0.20258781909942628, 0.18914240896701812, 0.18617224991321563, 0.18189848363399505, 0.17774990797042847, 0.1735876828432083, 0.16971485316753387, 0.1671789675951004, 0.1644556075334549, 0.16256784200668334, 0.1612710565328598, 0.1594586580991745, 0.16024027168750762, 0.1583260029554367, 0.15730648040771483, 0.15772433578968048, 0.1571328341960907, 0.15589693188667297, 0.15487280786037444, 0.1564163327217102, 0.15432029366493225, 0.15349631905555725, 0.1538372218608856, 0.15459429621696472, 0.15410321950912476, 0.15195874273777008, 0.15088396668434143, 0.14744706749916076, 0.15013502836227416, 0.15100933015346527, 0.14604667127132415, 0.1468614161014557, 0.14159338176250458, 0.14133063852787017, 0.1391972780227661, 0.13543244898319245, 0.1321832150220871, 0.1291833072900772, 0.13040096908807755, 0.12704893946647644, 0.11859953254461289, 0.11430524587631226, 0.1070748046040535, 0.10147509574890137, 0.09730629622936249, 0.08691564798355103, 0.08643374294042587, 0.07727170884609222, 0.07240606099367142, 0.07096705287694931, 0.06299152374267578, 0.05588349476456642, 0.049189943075180056, 0.053763562440872194, 0.04769591987133026, 0.04623609706759453, 0.044746849685907364, 0.03730519339442253, 0.0372648112475872, 0.033481018617749214, 0.034019666537642476, 0.03419184759259224, 0.03690899237990379, 0.024592457711696623, 0.026275971531867982, 0.02071119286119938, 0.02642315924167633, 0.018492008000612258, 0.017988081462681292, 0.015704840049147607, 0.01400048453360796, 0.018586309626698494, 0.018821621686220168, 0.016423658281564713, 0.02161853779107332, 0.016947736404836176, 0.02544211931526661, 0.033880000934004784, 0.015851568803191184, 0.021855119988322257, 0.028344672918319703, 0.03497357200831175, 0.015030499361455441, 0.014412002637982368, 0.015239633619785309, 0.015092813596129417, 0.010366066917777061, 0.015571945533156394, 0.011430901009589434, 0.008724098931998015, 0.010048184264451265, 0.016180787328630687, 0.008521943911910057, 0.009098480734974147, 0.014449261408299208, 0.00775980968028307, 0.00703283678740263, 0.007669260259717703, 0.00803564889356494, 0.012397926766425371]","[0.19136986136436462, 0.18955471366643906, 0.18644601851701736, 0.1824263483285904, 0.1779877096414566, 0.1733422875404358, 0.16983497887849808, 0.16691359132528305, 0.16486842185258865, 0.16332678496837616, 0.16181112080812454, 0.1604323610663414, 0.15927071869373322, 0.15875126421451569, 0.15804209560155869, 0.15760252624750137, 0.1573568731546402, 0.1568913459777832, 0.15642241388559341, 0.15592995285987854, 0.1558990627527237, 0.1554691046476364, 0.15501906722784042, 0.1549365371465683, 0.1539345383644104, 0.15328559279441833, 0.15261852741241455, 0.15191544592380524, 0.1514766365289688, 0.15020544081926346, 0.14863606542348862, 0.14741180837154388, 0.1459294855594635, 0.144979327917099, 0.1435868814587593, 0.14092935621738434, 0.13698269426822662, 0.1339516043663025, 0.13022863492369652, 0.12703194841742516, 0.12204566225409508, 0.11564558371901512, 0.10876765102148056, 0.10129230469465256, 0.09268414229154587, 0.08592712506651878, 0.07776002213358879, 0.07166396826505661, 0.06769243441522121, 0.06314905360341072, 0.05640201270580292, 0.05027167871594429, 0.045341815799474716, 0.0417293943464756, 0.04176688939332962, 0.03835643641650677, 0.035209355875849724, 0.03284988086670637, 0.03037281148135662, 0.027311179786920547, 0.025743979029357433, 0.023848015815019608, 0.020955639891326427, 0.020569754764437675, 0.017807630356401205, 0.017567691393196583, 0.017032500356435776, 0.015500743873417377, 0.013746584765613079, 0.012730594724416733, 0.01172367436811328, 0.011466427706182003, 0.012086322996765375, 0.01274174265563488, 0.011935946065932512, 0.010899890214204788, 0.011928046587854624, 0.012929315213114023, 0.016350907273590565, 0.011795914266258478, 0.012588187120854855, 0.012394154444336891, 0.01104257581755519, 0.009476249106228352, 0.008637676481157541, 0.008268834557384253, 0.007534740725532174, 0.0072040557861328125, 0.007507401052862406, 0.007190832635387778, 0.006831910228356719, 0.006749868392944336, 0.006576187442988157, 0.006291366647928953, 0.006153279449790716, 0.006068016402423382, 0.005797391524538398, 0.005564874969422817, 0.005830277688801289, 0.0059549459256231785]",0.020377081277902342,0.3291950834284312,0.0244079343690288,0.3011397045085768,0.05651633892977636,0.11710981807468512,0.055638897796688326,0.26228392390450794,0.6807752185519114,48.041684452909976,cuda
MITDB,175_MITDB_id_6_Medical_tr_27274_1st_27374,RN,pvt_autoencoder_frozen,128,83,83,64,100,0.001,"[0.2044985145330429, 0.18572449684143066, 0.17985701262950898, 0.17592358589172363, 0.17270725667476655, 0.1706331878900528, 0.16813429594039916, 0.16628579497337342, 0.16470937728881835, 0.1635799378156662, 0.1624828487634659, 0.16147623658180238, 0.16062730252742768, 0.16015306115150452, 0.15986489057540892, 0.15932868123054506, 0.15897369384765625, 0.15889249742031097, 0.15874271988868713, 0.15844415128231049, 0.15818205773830413, 0.15792004466056825, 0.15792577266693114, 0.15744490027427674, 0.15731453597545625, 0.1570129483938217, 0.15682037472724913, 0.1563699334859848, 0.15633433759212495, 0.15585533976554872, 0.1552308440208435, 0.15447403192520143, 0.1531985342502594, 0.1520282357931137, 0.15051522254943847, 0.14812833368778228, 0.14596261382102965, 0.14136382043361664, 0.1354181259870529, 0.12848574221134185, 0.11977078467607498, 0.11206160932779312, 0.10401656627655029, 0.09572436362504959, 0.08800962120294571, 0.07990657985210418, 0.07170165926218033, 0.0670688733458519, 0.0606736496090889, 0.05563233643770218, 0.04963593408465385, 0.04559504166245461, 0.04234100207686424, 0.038054902106523514, 0.033669997751712796, 0.030747208371758462, 0.029775057360529898, 0.029560360684990884, 0.02668730989098549, 0.023773043602705, 0.02134217247366905, 0.01924302875995636, 0.01727115996181965, 0.015480680763721466, 0.014291324652731419, 0.013424976728856564, 0.012863710708916187, 0.014431780390441417, 0.012382986210286617, 0.0123364619910717, 0.012767939642071725, 0.011716061644256115, 0.010992088541388511, 0.009966649301350116, 0.009530685283243657, 0.009638366103172303, 0.008208435587584972, 0.008172731194645167, 0.008796351775527001, 0.00791155556216836, 0.008255790174007415, 0.007364275399595499, 0.007050416432321072, 0.006939878966659307, 0.0065453250892460344, 0.0061991395428776744, 0.006341148447245359, 0.006120436917990446, 0.006753316707909107, 0.006863885745406151, 0.006040907185524702, 0.005935458280146122, 0.0056826027110219, 0.005649661552160979, 0.005460726656019687, 0.00522705651819706, 0.004917166009545326, 0.005281329620629549, 0.005230040941387415, 0.004851645510643721]","[0.18655028194189072, 0.18638187646865845, 0.18220561742782593, 0.1778080090880394, 0.1740470975637436, 0.171256922185421, 0.16887407004833221, 0.1669108346104622, 0.16534161567687988, 0.16398420184850693, 0.162784181535244, 0.16183338314294815, 0.1611398681998253, 0.1606087014079094, 0.16023719310760498, 0.1599426120519638, 0.15967125445604324, 0.15937069803476334, 0.1591692790389061, 0.1590244546532631, 0.15880724787712097, 0.15866240859031677, 0.15837926417589188, 0.15812495350837708, 0.15814820677042007, 0.1580403819680214, 0.1580210030078888, 0.15768085420131683, 0.15723691880702972, 0.15715955197811127, 0.15722858905792236, 0.15710438042879105, 0.15692199766635895, 0.15676172077655792, 0.156206376850605, 0.15480320155620575, 0.15268878638744354, 0.14658350497484207, 0.1403198391199112, 0.13264358788728714, 0.12324148416519165, 0.11405221372842789, 0.10612774640321732, 0.09642510861158371, 0.08854702860116959, 0.08001315593719482, 0.07412127032876015, 0.06560947373509407, 0.059124257415533066, 0.0534247774630785, 0.047982100397348404, 0.043223874643445015, 0.04050959646701813, 0.035990435630083084, 0.032149167731404305, 0.02978643961250782, 0.02830139733850956, 0.027367529459297657, 0.025724394246935844, 0.021754919551312923, 0.020236218348145485, 0.017974906601011753, 0.016387938521802425, 0.015230126678943634, 0.013813689816743135, 0.01330945361405611, 0.01248972024768591, 0.012777613941580057, 0.011871869675815105, 0.011898999568074942, 0.011054268572479486, 0.01143886661157012, 0.010362046770751476, 0.009406862314790487, 0.008513478562235832, 0.008428113767877221, 0.007956190034747124, 0.007824848173186183, 0.008307307958602905, 0.007600258802995086, 0.007262748666107655, 0.007626554928719997, 0.0064919982105493546, 0.006364423781633377, 0.006040175212547183, 0.005818088538944721, 0.005719529232010245, 0.005810984410345554, 0.0052203473169356585, 0.0052965376526117325, 0.0052081262692809105, 0.00537928706035018, 0.005970061523839831, 0.00538794114254415, 0.005009815562516451, 0.004851477686315775, 0.006380073726177216, 0.00522868218831718, 0.004847060423344374, 0.004937594756484032]",0.021599803240639783,0.339292935795275,0.02515000864696549,0.309193567156275,0.05651633892977636,0.1249618605281893,0.06504065040650372,0.25033091339442703,0.6807752185519114,47.84859149507247,cuda
MITDB,175_MITDB_id_6_Medical_tr_27274_1st_27374,RN,pvt_autoencoder_progressive_unfreeze,128,83,83,64,150,0.001,"[0.2077471375465393, 0.19093023836612702, 0.1816742718219757, 0.17473311722278595, 0.16940484941005707, 0.1657041996717453, 0.1630112498998642, 0.1606230318546295, 0.159008252620697, 0.15817161798477172, 0.15633083879947662, 0.15503937602043152, 0.15368539094924927, 0.15019370019435882, 0.14679044485092163, 0.1419347733259201, 0.135190948843956, 0.1285871982574463, 0.12115213871002198, 0.11265993267297744, 0.15318579226732254, 0.1576225459575653, 0.15354816615581512, 0.15041775107383729, 0.1454614967107773, 0.13673645555973052, 0.12530644983053207, 0.1170070618391037, 0.1047101452946663, 0.09523507505655289, 0.08606912940740585, 0.07731990665197372, 0.07094219475984573, 0.06675291210412979, 0.058647876232862474, 0.05291440412402153, 0.046693404018878934, 0.042979827523231505, 0.03896295502781868, 0.03476336300373077, 0.03127288110554218, 0.027879125624895095, 0.024645067378878595, 0.02274700701236725, 0.020462822541594504, 0.018617602065205574, 0.01655249111354351, 0.015401199646294116, 0.014284254051744938, 0.013944227620959282, 0.012689648009836674, 0.012033382244408131, 0.011421621963381767, 0.010236484929919243, 0.009354024939239026, 0.008735695481300354, 0.008420374058187009, 0.007603448629379272, 0.007240983657538891, 0.007949914038181304, 0.006500298157334328, 0.0063452496193349365, 0.007198531553149224, 0.0057486103847622875, 0.007179348170757294, 0.005900276079773903, 0.005651340913027525, 0.005622877646237612, 0.0050988375209271904, 0.005017036199569702, 0.004645923897624016, 0.0046036496758461, 0.004431953933089971, 0.004395457915961742, 0.004205624992027879, 0.004209227114915848, 0.004112443514168262, 0.0038288008887320756, 0.0036260974127799274, 0.003643961390480399, 0.0033938721753656864, 0.0032602846156805755, 0.00362805319018662, 0.0033484139945358037, 0.003319432120770216, 0.0032621209509670736, 0.003286760486662388, 0.0029871992766857145, 0.0029718794394284487, 0.0028351070825010536, 0.002902356022968888, 0.0027811976615339518, 0.002760597551241517, 0.0027703752275556326, 0.002688089245930314, 0.002683434635400772, 0.0027556161861866713, 0.002838799078017473, 0.003010116657242179, 0.0028653025627136232, 0.0027773321606218817, 0.002685350039973855, 0.0021812242921441793, 0.0021297031547874213, 0.0020975299878045915, 0.001889032544568181, 0.00196017159614712, 0.0018152394564822315, 0.00219649572391063, 0.0017919392324984075, 0.0018640309572219849, 0.0019795781699940562, 0.0019262467510998249, 0.0017689993605017663, 0.0016121080378070473, 0.0015215263003483415, 0.0015382980462163686, 0.001456197863444686, 0.0014713515061885118, 0.0014799508964642883, 0.0015145228244364262, 0.0014612034196034075, 0.0014086252544075251, 0.0013348335167393088, 0.001470617763698101, 0.0019233078928664327, 0.0016572013730183244]","[0.19812782108783722, 0.19460343569517136, 0.18770091980695724, 0.17909087240695953, 0.17176755517721176, 0.16724221408367157, 0.1641356125473976, 0.16197241842746735, 0.16066749393939972, 0.15952251851558685, 0.1588607281446457, 0.15823683142662048, 0.1576186716556549, 0.15688899904489517, 0.15483219176530838, 0.15066266804933548, 0.14400004595518112, 0.13559476286172867, 0.12574832886457443, 0.11412873864173889, 0.1860528290271759, 0.16853336244821548, 0.15658153593540192, 0.15327344089746475, 0.15099281817674637, 0.14433211833238602, 0.13393455743789673, 0.11691756173968315, 0.10579438135027885, 0.09411929920315742, 0.08488283678889275, 0.07628738880157471, 0.06800808012485504, 0.06199345365166664, 0.05513746850192547, 0.04942254349589348, 0.044161610305309296, 0.03967465087771416, 0.03525896742939949, 0.031707193702459335, 0.028676200658082962, 0.025514441542327404, 0.023353169672191143, 0.02111100684851408, 0.018995470367372036, 0.016773643903434277, 0.015081485733389854, 0.01448704581707716, 0.013579485937952995, 0.012005811091512442, 0.011413958854973316, 0.011294344440102577, 0.010122402105480433, 0.009172461926937103, 0.008518924005329609, 0.008153761271387339, 0.007494915975257754, 0.0067277634516358376, 0.006319875828921795, 0.006359242834150791, 0.006351662566885352, 0.00568467634730041, 0.005659970222041011, 0.005567766260355711, 0.005521578947082162, 0.005426642019301653, 0.0056501454673707485, 0.004906740505248308, 0.004569582873955369, 0.00445658597163856, 0.004102148814126849, 0.0043080400209873915, 0.004468707134947181, 0.003933445666916668, 0.0037634503096342087, 0.0038369466783478856, 0.0035699139116331935, 0.0034910845570266247, 0.0033743459498509765, 0.003306085942313075, 0.003024869132786989, 0.00297850021161139, 0.0029377943137660623, 0.0031385740730911493, 0.003009474603459239, 0.0028501873603090644, 0.0029784751823171973, 0.0027347728610038757, 0.002753177424892783, 0.0026675538392737508, 0.002720309654250741, 0.0025888916570693254, 0.0026752351550385356, 0.0024504648754373193, 0.002382762497290969, 0.002396244555711746, 0.002403918537311256, 0.0031801245640963316, 0.0027354481862857938, 0.0033855082001537085, 0.002974395058117807, 0.002216107677668333, 0.0019243172137066722, 0.0018800656544044614, 0.00182053551543504, 0.0017894561169669032, 0.0016282951110042632, 0.0016302791191264987, 0.0016846688813529909, 0.00163117831107229, 0.0016649951576255262, 0.0016647321754135191, 0.0016490148263983428, 0.001443387067411095, 0.0014310476835817099, 0.0013606961583718657, 0.0013240412808954716, 0.0013111758744344115, 0.001304186589550227, 0.0012986910878680646, 0.001281196833588183, 0.001294913759920746, 0.0012637670733965933, 0.0012365576112642884, 0.0012445584288798273, 0.0013107781996950507, 0.001400692795868963]",0.028402549663447595,0.4360092738246588,0.0328020719313994,0.4002087487470645,0.06465428434197636,0.19116527929003782,0.06615172622408888,0.6380942286041145,0.6775789020681624,72.8415425310377,cuda
MITDB,175_MITDB_id_6_Medical_tr_27274_1st_27374,RN,pvt_autoencoder_differential_lr,128,83,83,64,100,0.001,"[0.19939886033535004, 0.18144221603870392, 0.1723977208137512, 0.16648074686527253, 0.16258905827999115, 0.16053284108638763, 0.1583986312150955, 0.15740272998809815, 0.1563070684671402, 0.15526732206344604, 0.1551162600517273, 0.15448013246059417, 0.15410484075546266, 0.15362348556518554, 0.15322905778884888, 0.15306757092475892, 0.15244172215461732, 0.15137888491153717, 0.15072559416294098, 0.15084555149078369, 0.15023309588432313, 0.1495930701494217, 0.14941055476665496, 0.14806572794914247, 0.14743460416793824, 0.14590503871440888, 0.14798418283462525, 0.14515254497528077, 0.14562106132507324, 0.1442861557006836, 0.1445742815732956, 0.14210702776908873, 0.1410213053226471, 0.14274795949459076, 0.1424257457256317, 0.13801703453063965, 0.1396449774503708, 0.13576943576335906, 0.1365585893392563, 0.13336278796195983, 0.13282707929611207, 0.13135139644145966, 0.12940672039985657, 0.12511106282472612, 0.1256009116768837, 0.12367058396339417, 0.12343649566173553, 0.11801014840602875, 0.12137100845575333, 0.11582517474889756, 0.11275437176227569, 0.11309191882610321, 0.10955595821142197, 0.10403193682432174, 0.10381082445383072, 0.10272157043218613, 0.09861149042844772, 0.09721877574920654, 0.0911364123225212, 0.08926920592784882, 0.08230769783258438, 0.08035189211368561, 0.07786782085895538, 0.07296162396669388, 0.0680398777127266, 0.06422089189291, 0.057482703030109404, 0.06156543642282486, 0.05620074197649956, 0.053993115574121474, 0.05400327444076538, 0.05281229019165039, 0.04958551377058029, 0.04494151137769222, 0.043165990710258485, 0.036844002455472945, 0.033796217292547226, 0.03202112689614296, 0.03272198550403118, 0.030237087979912758, 0.0284638911485672, 0.027483458817005157, 0.025533493235707284, 0.022343259677290915, 0.021849964186549185, 0.019262877106666566, 0.01686719451099634, 0.01929511334747076, 0.01737171970307827, 0.014624896645545959, 0.01780357416719198, 0.01705814115703106, 0.023525258153676988, 0.01695843171328306, 0.015084587596356868, 0.013805212080478668, 0.013641704991459846, 0.011192409321665764, 0.014293739944696427, 0.013613557443022728]","[0.19456981122493744, 0.18945956230163574, 0.18041428178548813, 0.17159340530633926, 0.1649351343512535, 0.16187956184148788, 0.15963439643383026, 0.1584136113524437, 0.1575898602604866, 0.15672419220209122, 0.15632103383541107, 0.15589165687561035, 0.1575961485505104, 0.15767453610897064, 0.15526195615530014, 0.15513526648283005, 0.15612944960594177, 0.1549418643116951, 0.15577398240566254, 0.15455949306488037, 0.15302502363920212, 0.15263846516609192, 0.15234023332595825, 0.15252435952425003, 0.15102683007717133, 0.1502060666680336, 0.15183722972869873, 0.15319307893514633, 0.14944301545619965, 0.14868061989545822, 0.14990239590406418, 0.14760670810937881, 0.15063902735710144, 0.14689800143241882, 0.14829177409410477, 0.14367716759443283, 0.1449630782008171, 0.14192794263362885, 0.1430053785443306, 0.13999465852975845, 0.1409011259675026, 0.14035264402627945, 0.13679947704076767, 0.13618183135986328, 0.13534194231033325, 0.1324158012866974, 0.1325708031654358, 0.13702477514743805, 0.13240787386894226, 0.12894372642040253, 0.12728791683912277, 0.1245390921831131, 0.12434561178088188, 0.12185972929000854, 0.11822346597909927, 0.1146283932030201, 0.10771582648158073, 0.10391203314065933, 0.10261013358831406, 0.09790622442960739, 0.09712857753038406, 0.09757688269019127, 0.0958038866519928, 0.0867149569094181, 0.08532591909170151, 0.0816907063126564, 0.07860398292541504, 0.06924959272146225, 0.06512876600027084, 0.0674331746995449, 0.0682212021201849, 0.06385284662246704, 0.06097769737243652, 0.05619518272578716, 0.049763089045882225, 0.043998295441269875, 0.03962601535022259, 0.03622046485543251, 0.03860323503613472, 0.04903573915362358, 0.03609966114163399, 0.030017977580428123, 0.027704188600182533, 0.024609879590570927, 0.02291349321603775, 0.02195285353809595, 0.019336046651005745, 0.01799932774156332, 0.016388146672397852, 0.014827806036919355, 0.016214475966989994, 0.015445975121110678, 0.016689597629010677, 0.01825045794248581, 0.015497845597565174, 0.013262034393846989, 0.012140572536736727, 0.01170930964872241, 0.011220948304980993, 0.011851802002638578]",0.02443596129892188,0.39695194762111863,0.02773176276964452,0.3652602880172633,0.05651633892977636,0.14226411674068704,0.09523809523809477,0.3505829900978043,0.6808398225288663,60.62885079998523,cuda
MITDB,175_MITDB_id_6_Medical_tr_27274_1st_27374,LP,cnn_autoencoder,128,83,83,64,150,0.001,"[0.27300200462341306, 0.2491302639245987, 0.23036447465419768, 0.2134288728237152, 0.197507780790329, 0.18260493278503417, 0.16836123764514924, 0.15529486835002898, 0.14274947047233583, 0.1315550297498703, 0.12081492841243743, 0.1116289883852005, 0.10282846242189407, 0.09481384307146072, 0.08807796984910965, 0.0820679247379303, 0.07595617175102234, 0.07079288214445115, 0.06591549664735794, 0.062067334353923795, 0.058223114162683484, 0.05468909665942192, 0.05141927748918533, 0.049891737103462216, 0.046266677975654605, 0.04429885149002075, 0.04273585379123688, 0.0399649441242218, 0.0391312375664711, 0.036841540783643725, 0.03598546385765076, 0.033957650512456895, 0.03290235474705696, 0.03172458559274673, 0.030688106268644332, 0.02988540269434452, 0.028958523645997047, 0.028803134337067604, 0.02753747031092644, 0.02663305774331093, 0.027065545320510864, 0.025147026777267455, 0.024729331955313683, 0.02388591319322586, 0.02289564497768879, 0.02283143103122711, 0.02210198938846588, 0.022481867298483848, 0.02120571807026863, 0.021317000687122344, 0.02089753933250904, 0.02007834203541279, 0.019800088927149774, 0.019465434551239013, 0.01939491406083107, 0.01838275194168091, 0.018764622136950494, 0.01833524666726589, 0.01805294007062912, 0.01766054257750511, 0.016939908638596533, 0.01746855415403843, 0.01722738891839981, 0.016828671842813493, 0.016820747032761575, 0.016142633371055128, 0.01621107179671526, 0.01606849804520607, 0.015634287521243094, 0.015297655388712883, 0.01575283017009497, 0.015057557448744773, 0.015269226208329201, 0.01523852851241827, 0.01497954148799181, 0.014366505481302739, 0.015211329981684684, 0.014846904762089252, 0.014737734198570251, 0.014621357060968876, 0.014234572649002075, 0.01379809882491827, 0.013872955180704593, 0.013521014712750912, 0.01388756912201643, 0.013247188925743104, 0.013441837206482888, 0.013479476608335973, 0.013174002803862096, 0.013149174489080906, 0.013126386143267155, 0.012785345874726772, 0.01260871384292841, 0.01287364549934864, 0.012458192370831966, 0.012402305752038956, 0.012318201176822186, 0.01262383982539177, 0.012351558543741703, 0.012240232340991497, 0.011810541525483132, 0.011720045655965804, 0.012563829682767392, 0.011879321560263634, 0.01205159891396761, 0.01229572519659996, 0.011943943612277508, 0.01153474897146225, 0.011629716120660305, 0.011631863377988338, 0.012087038904428481, 0.011951981298625469, 0.01167831216007471, 0.011504045873880386, 0.011067437939345837, 0.01105216182768345, 0.011001581698656083, 0.011698570661246776, 0.010843942686915398, 0.011239889822900296, 0.011431501060724259, 0.011038510501384735, 0.011062534153461456, 0.010604417882859707, 0.010696710273623466, 0.010887825302779675, 0.010715034045279025, 0.010488360188901424, 0.01047049630433321, 0.010165568627417087, 0.010401309281587601, 0.01048415880650282, 0.01031943392008543, 0.01001568790525198, 0.01032076422125101, 0.010233610682189465, 0.010193012654781342, 0.01027081198990345, 0.009718279540538787, 0.009611817449331284, 0.010129660181701184, 0.009619714692234993, 0.009589917212724685, 0.010113993473351002, 0.010180034674704075, 0.009786071628332138, 0.010465442389249801, 0.00952992532402277, 0.009495516680181027, 0.009121568035334348]","[0.27777211368083954, 0.2688695639371872, 0.25320179760456085, 0.2340182289481163, 0.21364765614271164, 0.19303582608699799, 0.1742234081029892, 0.15701261162757874, 0.14235536754131317, 0.1287202313542366, 0.11665694415569305, 0.10612309351563454, 0.09728986769914627, 0.08976573124527931, 0.08263925835490227, 0.0759919062256813, 0.07061121985316277, 0.06619100272655487, 0.0615665428340435, 0.05778336338698864, 0.05433471128344536, 0.05131579749286175, 0.04902981221675873, 0.04585674777626991, 0.04374547675251961, 0.042235493659973145, 0.04021019674837589, 0.03868256136775017, 0.03677552379667759, 0.035190582275390625, 0.034035129472613335, 0.03252498805522919, 0.03074261173605919, 0.030928362160921097, 0.02965696807950735, 0.02891589980572462, 0.027716065756976604, 0.02746301330626011, 0.0253935307264328, 0.024984946474432945, 0.02471586223691702, 0.02335240226238966, 0.022538889199495316, 0.02275129407644272, 0.022177557460963726, 0.02247968688607216, 0.021445234306156635, 0.021529757417738438, 0.02033565752208233, 0.020579765550792217, 0.02037216443568468, 0.01963510364294052, 0.019768002443015575, 0.019605282694101334, 0.019722898490726948, 0.019472835585474968, 0.019016786478459835, 0.018412848003208637, 0.01796797104179859, 0.017730378545820713, 0.01749638421460986, 0.017391785513609648, 0.017292889766395092, 0.016821501776576042, 0.01713680988177657, 0.016799068078398705, 0.01700657792389393, 0.016443824395537376, 0.016368263866752386, 0.016016342677176, 0.015746953897178173, 0.015397514682263136, 0.015524898655712605, 0.015347609296441078, 0.015100890770554543, 0.015259422827512026, 0.015639950521290302, 0.015276840887963772, 0.015330753289163113, 0.014992659445852041, 0.014786607585847378, 0.014696082100272179, 0.014515919145196676, 0.014367425814270973, 0.014563867822289467, 0.014455938246101141, 0.014468690380454063, 0.014272143598645926, 0.014245216734707355, 0.014115274883806705, 0.014111987315118313, 0.01403549313545227, 0.014013039879500866, 0.014023163355886936, 0.013861521147191525, 0.013906316831707954, 0.013830771669745445, 0.013848815113306046, 0.013859755359590054, 0.013756513595581055, 0.013655779883265495, 0.013674363493919373, 0.013557016849517822, 0.013365244958549738, 0.013275951147079468, 0.013226143550127745, 0.013351190835237503, 0.013144382275640965, 0.013126175850629807, 0.013157167937606573, 0.013229054398834705, 0.013277483638375998, 0.013059569522738457, 0.013222920708358288, 0.013038266450166702, 0.012840322218835354, 0.012738823890686035, 0.012847093865275383, 0.012813299428671598, 0.012637647800147533, 0.01265810476616025, 0.012569036800414324, 0.012429450172930956, 0.012374801561236382, 0.012484921142458916, 0.012583240866661072, 0.012375244405120611, 0.012510551605373621, 0.01238087983801961, 0.012371779419481754, 0.012336388695985079, 0.01227165712043643, 0.012237589806318283, 0.012172502465546131, 0.012257507536560297, 0.011999613605439663, 0.012187350541353226, 0.011948597151786089, 0.012091824784874916, 0.011954616755247116, 0.011964370496571064, 0.011790727730840445, 0.01176521647721529, 0.011824649292975664, 0.011927421670407057, 0.011910402216017246, 0.012161904014647007, 0.011853707022964954, 0.01181002939119935, 0.011715402361005545]",0.054587721741945684,0.5131394443255751,0.04125942433657131,0.5503442053845717,0.08628854750665758,0.5628281931809778,0.2631578947368417,0.11531473519451545,0.7321165908767125,46.958391330903396,cuda
MITDB,175_MITDB_id_6_Medical_tr_27274_1st_27374,LP,resnet18_autoencoder_frozen,128,83,83,64,100,0.001,"[0.21857185661792755, 0.17824615240097047, 0.15067066252231598, 0.12700027525424956, 0.10774833112955093, 0.09106669723987579, 0.0776811808347702, 0.0673385351896286, 0.058904819935560224, 0.051899755746126174, 0.046857571601867674, 0.04248576834797859, 0.03870355039834976, 0.03578716814517975, 0.033648062497377396, 0.03182727918028831, 0.030899856612086295, 0.02945091836154461, 0.027820825949311255, 0.027333065494894983, 0.02615792378783226, 0.026158661767840385, 0.02516675218939781, 0.024546438455581666, 0.023560379073023795, 0.023321999609470366, 0.022583068907260896, 0.023089709877967834, 0.022305980697274207, 0.022124980017542838, 0.02197279967367649, 0.022516564279794694, 0.021862200647592544, 0.02087794542312622, 0.020734402164816857, 0.021357696503400803, 0.020045143365859986, 0.021099914237856864, 0.02000599354505539, 0.019122089818120004, 0.02071014977991581, 0.0194887213408947, 0.019067505747079848, 0.018649375438690184, 0.018879230320453643, 0.01841755546629429, 0.019512488692998885, 0.018681276589632034, 0.018953949213027954, 0.01853890120983124, 0.01744683738797903, 0.017389607056975363, 0.01725833974778652, 0.017115744203329085, 0.01747847944498062, 0.017057783901691437, 0.016891194880008696, 0.017116769775748254, 0.01751069724559784, 0.01741481013596058, 0.0170068621635437, 0.01771218180656433, 0.016133959963917734, 0.016988782212138176, 0.016313143260776996, 0.016754403337836267, 0.01816592290997505, 0.01570270098745823, 0.01672244369983673, 0.01575930155813694, 0.015571221709251404, 0.015206169150769711, 0.015963897667825223, 0.015388570353388786, 0.015094410628080368, 0.015776478312909605, 0.014867126196622848, 0.015248776227235795, 0.014881817437708379, 0.015343084931373596, 0.01572437919676304, 0.01558494046330452, 0.01492748111486435, 0.014427439495921134, 0.014758371189236641, 0.014660594426095486]","[0.23776893317699432, 0.2187764272093773, 0.18114956468343735, 0.13925456255674362, 0.10538765415549278, 0.0825144313275814, 0.06758802384138107, 0.05743802897632122, 0.050681980326771736, 0.04522049240767956, 0.04097197949886322, 0.03770184703171253, 0.03504692390561104, 0.032717449590563774, 0.030809767544269562, 0.029444172978401184, 0.028007865883409977, 0.027012182399630547, 0.02587717119604349, 0.02516905590891838, 0.02445881348103285, 0.02383029367774725, 0.02336809504777193, 0.022717486135661602, 0.02237300854176283, 0.022005080245435238, 0.02170627936720848, 0.021417380310595036, 0.02107061818242073, 0.02086612768471241, 0.02056891843676567, 0.020243716426193714, 0.020141947083175182, 0.019786235876381397, 0.019472665153443813, 0.019275251775979996, 0.019070484675467014, 0.01900425273925066, 0.018630603328347206, 0.01849980279803276, 0.01836954616010189, 0.0188133018091321, 0.01819370873272419, 0.01854466088116169, 0.018152072094380856, 0.018589149229228497, 0.018438825383782387, 0.01817218028008938, 0.018099951557815075, 0.01802023407071829, 0.01823259238153696, 0.018472516909241676, 0.018379701301455498, 0.018749370239675045, 0.0177683187648654, 0.01765298005193472, 0.018132331781089306, 0.01777018792927265, 0.018076282925903797, 0.01779043208807707, 0.01737216394394636, 0.017467849887907505, 0.017244121059775352, 0.017570811323821545, 0.01827772706747055, 0.017747122794389725, 0.017748123034834862, 0.017769915983080864, 0.017652811482548714, 0.017437928821891546, 0.018173051066696644, 0.01797511801123619, 0.01709909178316593, 0.01702199224382639, 0.017441831529140472, 0.016528669744729996, 0.01662273518741131, 0.017379248049110174, 0.017414500936865807, 0.017386869993060827, 0.017845709808170795, 0.018297763541340828, 0.01792901661247015, 0.01772216707468033, 0.0173047985881567, 0.017639441415667534]",0.03670522525456692,0.518388710416409,0.036944815848370685,0.5525959851242341,0.06949779307833848,0.5293665480427047,0.16348773841961806,0.08990892756260324,0.7210387627485875,38.460380238015205,cuda
MITDB,175_MITDB_id_6_Medical_tr_27274_1st_27374,LP,resnet18_autoencoder_progressive_unfreeze,128,83,83,64,150,0.001,"[0.24818710684776307, 0.2071647584438324, 0.17614110112190245, 0.14969228506088256, 0.1270148992538452, 0.1076424166560173, 0.09198335111141205, 0.07865019887685776, 0.06792762577533722, 0.05867523103952408, 0.05179910510778427, 0.04607499316334725, 0.04215790554881096, 0.0384855218231678, 0.0355958454310894, 0.03352892622351646, 0.031108616665005685, 0.030449413135647772, 0.02889319583773613, 0.027859944477677347, 0.026371261477470397, 0.024516317620873453, 0.02313176579773426, 0.022052868083119393, 0.021363282576203346, 0.021215274184942245, 0.01978893056511879, 0.019461091980338095, 0.0186692725867033, 0.01884488798677921, 0.018872394040226937, 0.017913195118308068, 0.017548488453030586, 0.016934727877378465, 0.016999739035964013, 0.017149129509925844, 0.01670290492475033, 0.016281581856310366, 0.016819868981838227, 0.016085053607821465, 0.016825723834335803, 0.016234278678894043, 0.015128218196332454, 0.015380175411701202, 0.015306740254163741, 0.015313125774264335, 0.015740837901830673, 0.01613859198987484, 0.015133882313966751, 0.015295189432799816, 0.015683620236814022, 0.01540553905069828, 0.015082661621272564, 0.01544372197240591, 0.01495329849421978, 0.015240465849637985, 0.013936897180974484, 0.01492745466530323, 0.014902565628290176, 0.013917033560574055, 0.013719105347990989, 0.01435768473893404, 0.013594657368957996, 0.01372210830450058, 0.013970809057354927, 0.01455292385071516, 0.014048722572624683, 0.013724839128553868, 0.013791652768850327, 0.013421330600976944, 0.014238718897104263, 0.013322941400110722, 0.013640459440648556, 0.014129013195633889, 0.01367470845580101, 0.013357173465192319, 0.012960066832602025, 0.01387501023709774, 0.013040766678750515, 0.012866145186126231, 0.013890722766518593, 0.013486156240105629, 0.013486915081739426, 0.012916990183293819, 0.013189925253391266, 0.013420187309384346, 0.012799112498760224, 0.012043157406151295]","[0.2518159747123718, 0.24064677953720093, 0.20975004881620407, 0.16992531716823578, 0.13467904925346375, 0.10780163109302521, 0.08814670145511627, 0.07268600538372993, 0.061653681099414825, 0.0533258430659771, 0.04699460230767727, 0.04219642095267773, 0.038170015439391136, 0.035315779969096184, 0.03285412862896919, 0.031021583825349808, 0.029286306351423264, 0.027918708510696888, 0.026829126290977, 0.02577186096459627, 0.024345477111637592, 0.02232464589178562, 0.021214923821389675, 0.02035973221063614, 0.01962665095925331, 0.019003279507160187, 0.018577048555016518, 0.018050922080874443, 0.017632147297263145, 0.016821381635963917, 0.01650093123316765, 0.01602119207382202, 0.015841254964470863, 0.01569937262684107, 0.015383885242044926, 0.015042075887322426, 0.014841886702924967, 0.01490422710776329, 0.014725737273693085, 0.014826323371380568, 0.014593850821256638, 0.014714349992573261, 0.014267334248870611, 0.014260106720030308, 0.013911053538322449, 0.013881457969546318, 0.013967174105346203, 0.014146636240184307, 0.01384415803477168, 0.014030513353645802, 0.013882437720894814, 0.014419333077967167, 0.014594756998121738, 0.013563394546508789, 0.013762794435024261, 0.01380077563226223, 0.013879445847123861, 0.013542529195547104, 0.013778595253825188, 0.01382386777549982, 0.013726031873375177, 0.013410720508545637, 0.013546226546168327, 0.013347167987376451, 0.013555378653109074, 0.013473567087203264, 0.013250586576759815, 0.01337208366021514, 0.013136419467628002, 0.013348487205803394, 0.01300361193716526, 0.0130549231544137, 0.01356826163828373, 0.013204659335315228, 0.012924340553581715, 0.013083457946777344, 0.012882561888545752, 0.012634259648621082, 0.012723959982395172, 0.01285762619227171, 0.012996781151741743, 0.013137731235474348, 0.0128482636064291, 0.012863432988524437, 0.012729291804134846, 0.01284934300929308, 0.01280377758666873, 0.01264128927141428]",0.05023314501268841,0.5314982040412017,0.04003252486294074,0.5665399843253031,0.07543010645516325,0.5904421616793212,0.2702702702702699,0.25320595776388,0.7198563904173424,38.557560472982004,cuda
MITDB,175_MITDB_id_6_Medical_tr_27274_1st_27374,LP,resnet18_autoencoder_differential_lr,128,83,83,64,100,0.001,"[0.23611148893833162, 0.20141888558864593, 0.17619349360466002, 0.15414029657840728, 0.13391717076301574, 0.11654801815748214, 0.1018217757344246, 0.08875199407339096, 0.0780903309583664, 0.06905088126659394, 0.06139710023999214, 0.055823865532875064, 0.050421231985092164, 0.04639226794242859, 0.042595353722572324, 0.03992537707090378, 0.036901664733886716, 0.03463939726352692, 0.032954413816332816, 0.031495701894164084, 0.030158840492367743, 0.029200119897723198, 0.02796267196536064, 0.027564896643161772, 0.026455579325556755, 0.025402574241161345, 0.025054873898625374, 0.024785305932164194, 0.02394525669515133, 0.023984071239829062, 0.023015296086668968, 0.023250386863946915, 0.02284780368208885, 0.02208709381520748, 0.02225768640637398, 0.022400150448083876, 0.021308090537786484, 0.02081052176654339, 0.021518231183290482, 0.019886121898889542, 0.0202896811068058, 0.01998605914413929, 0.0190042857080698, 0.020020496845245362, 0.019297141581773758, 0.01910867467522621, 0.019220710918307304, 0.01810857988893986, 0.01772563848644495, 0.018261491134762765, 0.01793745793402195, 0.018201945722103118, 0.018060722947120668, 0.018435199186205863, 0.017187651991844178, 0.018191950023174287, 0.01671833675354719, 0.01662711463868618, 0.01644159872084856, 0.018087807670235635, 0.016282148845493793, 0.01710929051041603, 0.01617157906293869, 0.016591224074363708, 0.016779113747179508, 0.01604525148868561, 0.01624790281057358, 0.01562347449362278, 0.015909959375858308, 0.016516959480941295, 0.01639019846916199, 0.016308470256626607, 0.01553182490170002, 0.016131113283336163, 0.01597094889730215, 0.015403004549443721, 0.015292889811098576, 0.015167462639510632, 0.015048979595303536, 0.015402743779122829, 0.015004790015518665, 0.014877623133361339, 0.015332147665321826, 0.014967109821736813, 0.014355735667049885, 0.014288123510777951, 0.014748558588325977, 0.014658407121896744, 0.01497074645012617, 0.01498609147965908, 0.014030641876161098, 0.014611256681382656, 0.014077153429389, 0.014504983462393284, 0.013295033946633339, 0.013753790594637393, 0.014512239582836628, 0.013646632060408592, 0.014078838750720024, 0.014130604453384876]","[0.23973318934440613, 0.2290688306093216, 0.20606862008571625, 0.17091690748929977, 0.14033839106559753, 0.11575380712747574, 0.09640238434076309, 0.08210920915007591, 0.0705433264374733, 0.06268936395645142, 0.055867308750748634, 0.05099906213581562, 0.0458550788462162, 0.042289864271879196, 0.038927795365452766, 0.0363293681293726, 0.03398571349680424, 0.032128785736858845, 0.030552196316421032, 0.02914701122790575, 0.0278687858954072, 0.026966852135956287, 0.026053136214613914, 0.025396136566996574, 0.024648765102028847, 0.024016041308641434, 0.02336690854281187, 0.022910226136446, 0.022658219560980797, 0.022005969658493996, 0.021440133452415466, 0.02129484061151743, 0.020795460790395737, 0.020614812150597572, 0.02010538149625063, 0.01991608738899231, 0.01936017908155918, 0.01924588903784752, 0.018769594840705395, 0.0185150234028697, 0.018256130628287792, 0.01806431356817484, 0.017739705741405487, 0.01755051128566265, 0.017441886477172375, 0.017152294982224703, 0.017040707170963287, 0.01708082528784871, 0.016662830486893654, 0.01673097535967827, 0.01638274732977152, 0.016448535956442356, 0.01627804944291711, 0.016137109603732824, 0.01600598357617855, 0.016394044738262892, 0.015983995981514454, 0.015902509447187185, 0.015871237963438034, 0.015460317954421043, 0.015823839232325554, 0.015504352282732725, 0.015030995942652225, 0.015200112946331501, 0.015188897959887981, 0.015141519717872143, 0.01487804763019085, 0.015037877019494772, 0.014722662977874279, 0.01485458854585886, 0.014863860327750444, 0.01452580839395523, 0.014437328092753887, 0.014583253301680088, 0.014482146594673395, 0.014466512482613325, 0.0143743259832263, 0.014151573181152344, 0.014299305155873299, 0.01418787194415927, 0.014132827520370483, 0.014207047410309315, 0.014249853789806366, 0.01431293273344636, 0.014364393427968025, 0.013859209604561329, 0.014213452115654945, 0.014247700572013855, 0.013875469099730253, 0.01383476098999381, 0.01407506363466382, 0.01391103770583868, 0.014124243054538965, 0.01387062668800354, 0.013543631415814161, 0.013671208638697863, 0.01349892234429717, 0.013669981621205807, 0.013833054807037115, 0.013431145809590816]",0.044935695520476715,0.5235071051227287,0.037948325694795046,0.557802798275784,0.0733286133213539,0.4743546387104047,0.14035087719298198,0.08764312547512584,0.7247452791567724,47.090153351891786,cuda
MITDB,175_MITDB_id_6_Medical_tr_27274_1st_27374,LP,pvt_autoencoder_frozen,128,83,83,64,100,0.001,"[0.22962706089019774, 0.18501705527305604, 0.15429433882236482, 0.1296807512640953, 0.11011419743299485, 0.09437028467655181, 0.08137803673744201, 0.07077184170484543, 0.06267822533845901, 0.05553697273135185, 0.05043768361210823, 0.045813184976577756, 0.04173005297780037, 0.03875985816121101, 0.03644756004214287, 0.03410203829407692, 0.03226557895541191, 0.030622653663158417, 0.029185247793793678, 0.028304514288902283, 0.02788286879658699, 0.02769942209124565, 0.02619580626487732, 0.025334734469652176, 0.024883558228611945, 0.02444688081741333, 0.023400023207068445, 0.023333830386400224, 0.02253575548529625, 0.02316289022564888, 0.02272847853600979, 0.021914026513695718, 0.021345208585262298, 0.021358096227049827, 0.020345163717865943, 0.02012457400560379, 0.02059359773993492, 0.020172334834933282, 0.019545315951108932, 0.019587594270706176, 0.019419680535793304, 0.019333676993846895, 0.019276713579893114, 0.018581294640898704, 0.019127581641077994, 0.018577775359153746, 0.017995667830109596, 0.018209964409470557, 0.018048350140452384, 0.017754684016108514, 0.01734660193324089, 0.016977934166789055, 0.017268578335642815, 0.017521658167243003, 0.016388744860887528, 0.016376051120460033, 0.017004842683672906, 0.017626981623470782, 0.016016368754208088, 0.016306478530168533, 0.01594783868640661, 0.0161197979003191, 0.015986936911940575, 0.016572333127260207, 0.016039041988551616, 0.015951386839151382, 0.016179320216178895, 0.01477215439081192, 0.014851864241063596, 0.01512252576649189, 0.014711689203977585, 0.014905554614961148, 0.014032414741814136, 0.014068752340972424, 0.014315428398549556, 0.014023254066705704, 0.014288132637739181, 0.013650808297097684, 0.013470056280493737, 0.013944917917251587]","[0.24810341000556946, 0.2285614311695099, 0.18595655262470245, 0.14099760353565216, 0.10784453898668289, 0.08490390330553055, 0.07053982466459274, 0.06117946282029152, 0.05403617396950722, 0.04858015291392803, 0.04415849782526493, 0.04067814163863659, 0.037585752084851265, 0.035246217623353004, 0.03322986140847206, 0.031329765915870667, 0.02995574101805687, 0.028719814494252205, 0.027568616904318333, 0.026669473387300968, 0.02594373282045126, 0.025048933923244476, 0.024488072842359543, 0.024054274894297123, 0.023382741026580334, 0.023138693533837795, 0.02265169471502304, 0.02223089151084423, 0.02190972212702036, 0.02175803203135729, 0.021284135058522224, 0.020647404715418816, 0.020435466431081295, 0.020113851875066757, 0.019692014902830124, 0.019340249709784985, 0.019040669314563274, 0.018967426382005215, 0.019204556941986084, 0.018190712668001652, 0.018566591665148735, 0.018218006938695908, 0.017662856727838516, 0.017869644798338413, 0.017583219334483147, 0.017204923555254936, 0.01736697182059288, 0.017745480872690678, 0.01719287596642971, 0.01682979380711913, 0.017322785686701536, 0.01698138937354088, 0.016790133900940418, 0.016225867439061403, 0.016400247812271118, 0.01629361929371953, 0.016458261292427778, 0.01651723077520728, 0.016839781776070595, 0.01616897853091359, 0.016832741908729076, 0.016033201944082975, 0.016333099454641342, 0.016071868129074574, 0.015860483516007662, 0.016025442630052567, 0.01622688304632902, 0.01633239584043622, 0.01656951243057847, 0.015337659046053886, 0.015617981553077698, 0.01611685147508979, 0.01628727838397026, 0.01609588088467717, 0.015315437689423561, 0.016029309015721083, 0.015794459730386734, 0.01644480088725686, 0.015825167298316956, 0.016169301234185696]",0.047358562302064505,0.5278558875467597,0.04209305718910691,0.560291452198028,0.09935807748789441,0.600415860041586,0.20408163265306073,0.11553870193915865,0.7355142204046293,37.21604993916117,cuda
MITDB,175_MITDB_id_6_Medical_tr_27274_1st_27374,LP,pvt_autoencoder_progressive_unfreeze,128,83,83,64,150,0.001,"[0.26808035671710967, 0.23027201294898986, 0.20110610425472258, 0.17596451044082642, 0.15299422442913055, 0.13167623430490494, 0.11337934732437134, 0.0976764440536499, 0.08444893062114715, 0.07308521419763565, 0.0648789569735527, 0.05722246691584587, 0.050532808899879454, 0.04651966989040375, 0.042733141034841535, 0.03931970968842506, 0.03658705949783325, 0.03451883494853973, 0.03304151073098183, 0.0314038023352623, 0.02921917289495468, 0.026731880381703377, 0.02462279684841633, 0.023520718142390252, 0.022970688715577125, 0.022281060740351678, 0.022018106654286385, 0.021230604499578476, 0.02023296244442463, 0.02050635851919651, 0.019792056083679198, 0.02077786661684513, 0.019684186577796935, 0.019714614003896715, 0.020399846881628037, 0.019062381982803345, 0.01928168535232544, 0.01978839039802551, 0.019931219518184662, 0.018711823970079422, 0.019319118931889534, 0.019297460094094276, 0.019349820911884308, 0.01879076026380062, 0.018627020344138146, 0.018683253228664397, 0.019314124435186385, 0.018336790800094604, 0.018416151776909827, 0.018106143921613693, 0.018332278355956078, 0.01877388097345829, 0.017112053744494916, 0.018180368840694426, 0.01745051108300686, 0.017099702917039394, 0.01751437857747078, 0.017641723155975342, 0.017466264590620995, 0.017618760094046594, 0.01649377476423979, 0.01710360236465931, 0.01617904510349035, 0.01636284068226814, 0.015834036469459533, 0.016084236651659013, 0.01634539719671011, 0.017213426530361176, 0.016791674308478832, 0.015897353924810887, 0.015234691463410855, 0.01563003547489643, 0.015651172026991844, 0.016285068728029727, 0.01535160355269909, 0.015648423135280608, 0.015117683820426464, 0.01493109967559576, 0.015375621244311332, 0.01508379690349102, 0.014776664972305297, 0.015164627507328988, 0.014865859784185887, 0.013964869268238544, 0.014956283941864967, 0.014650006592273713, 0.014159893803298473, 0.014321329817175866, 0.015214182436466217, 0.014168354123830796, 0.015260423347353936, 0.014133891277015209, 0.014079498685896396, 0.014502557553350925, 0.014244170300662518, 0.014133615791797638, 0.015074295736849309, 0.014817705377936363, 0.014616994932293893, 0.013339963741600513, 0.01298049408942461, 0.013900955207645893, 0.012819954194128513, 0.013251354545354843, 0.012868638522922993, 0.01301798466593027, 0.012926206551492214, 0.012450097501277924, 0.012073761038482188, 0.01260723192244768, 0.012540743499994279, 0.012986567802727222, 0.011709923669695855, 0.011976170353591442, 0.012250411882996559, 0.012469384633004666, 0.01221066601574421, 0.012012467160820961, 0.012209129519760609, 0.012349710240960122]","[0.26335763931274414, 0.257754921913147, 0.22638339549303055, 0.18628182262182236, 0.15019579976797104, 0.1211218535900116, 0.09944895282387733, 0.08362534269690514, 0.07210895046591759, 0.06305308267474174, 0.056180499494075775, 0.05000540427863598, 0.04550682194530964, 0.04210079833865166, 0.03912983648478985, 0.036636415868997574, 0.03431994467973709, 0.03247310779988766, 0.03075522929430008, 0.029521497897803783, 0.026393110863864422, 0.024207965470850468, 0.02244824729859829, 0.021500909700989723, 0.020868140272796154, 0.02014319598674774, 0.01967705972492695, 0.019421018660068512, 0.0192223209887743, 0.018938192166388035, 0.01875053159892559, 0.018545188009738922, 0.018490822054445744, 0.018488449975848198, 0.018326192162930965, 0.01831225585192442, 0.01826840452849865, 0.019436203874647617, 0.018047930672764778, 0.017860890366137028, 0.017953936010599136, 0.01795471180230379, 0.01762522989884019, 0.017570572905242443, 0.0174773083999753, 0.01725980080664158, 0.01734916167333722, 0.017313769087195396, 0.017731165513396263, 0.01697585266083479, 0.016799595206975937, 0.016726015135645866, 0.016578911803662777, 0.016187453642487526, 0.016104063484817743, 0.016217426396906376, 0.0157481599599123, 0.015395609196275473, 0.01519137341529131, 0.015149172395467758, 0.01474530715495348, 0.01443457743152976, 0.014565689489245415, 0.01446810970082879, 0.014432383235543966, 0.01445024972781539, 0.0158431064337492, 0.015058059245347977, 0.014574678614735603, 0.014283839147537947, 0.014289582148194313, 0.014322365168482065, 0.014043734408915043, 0.013988095335662365, 0.014102004002779722, 0.014030102174729109, 0.01405054097995162, 0.01351784635335207, 0.013605188112705946, 0.014006671495735645, 0.013576239813119173, 0.013473679311573505, 0.013242952525615692, 0.013425406068563461, 0.013267739675939083, 0.013758308254182339, 0.013431606814265251, 0.013162651099264622, 0.014146503992378712, 0.013258682563900948, 0.013053671456873417, 0.012548931874334812, 0.013191228732466698, 0.01299346936866641, 0.012814961839467287, 0.012870815582573414, 0.013245702721178532, 0.01427129888907075, 0.012985974550247192, 0.01268380880355835, 0.012477779760956764, 0.012392432428896427, 0.012481390498578548, 0.012125407345592976, 0.01219177059829235, 0.012093816418200731, 0.01203570980578661, 0.012086346745491028, 0.012104465626180172, 0.01193665387108922, 0.01197887770831585, 0.012095028068870306, 0.011970988940447569, 0.01207074522972107, 0.012202628888189793, 0.012352213729172945, 0.012075773440301418, 0.012084550224244595, 0.012106079142540693, 0.012018323875963688]",0.05477771263325383,0.5396773850913468,0.04383571818831707,0.5741884491947087,0.08874257519534826,0.6186410035323895,0.24291497975708456,0.4470518166903847,0.7088060799805797,65.50735127110966,cuda
MITDB,175_MITDB_id_6_Medical_tr_27274_1st_27374,LP,pvt_autoencoder_differential_lr,128,83,83,64,100,0.001,"[0.2580236464738846, 0.22384979724884033, 0.20264366567134856, 0.1843475490808487, 0.16812758147716522, 0.15139375030994415, 0.1323707789182663, 0.11481831818819047, 0.09944968521595002, 0.0855815663933754, 0.07421138435602188, 0.06476812809705734, 0.05725955739617348, 0.05082374662160873, 0.0462158590555191, 0.04139814451336861, 0.038934700191020966, 0.03548624217510223, 0.03375377282500267, 0.032004883512854576, 0.030302077904343604, 0.02989659607410431, 0.027830246090888976, 0.02669256329536438, 0.026106979697942734, 0.025928332656621932, 0.024966662004590034, 0.024532897025346757, 0.024251346290111542, 0.023998836800456048, 0.023792837187647818, 0.02338993512094021, 0.022353124246001242, 0.022464519739151, 0.02237330563366413, 0.022203369811177254, 0.02254970408976078, 0.021177555620670318, 0.021738940849900246, 0.021357090771198274, 0.021042589098215103, 0.02112780213356018, 0.020764633268117904, 0.02081170380115509, 0.020481981337070465, 0.020350925624370575, 0.02148388735949993, 0.02022745944559574, 0.020141474157571792, 0.01976325213909149, 0.020489369332790375, 0.01977413333952427, 0.020013291761279105, 0.020170674473047257, 0.01912611611187458, 0.019608452171087264, 0.01969991289079189, 0.020245691761374474, 0.02009793259203434, 0.020266805961728095, 0.018598048947751522, 0.019900886341929436, 0.018889665603637695, 0.019378479570150375, 0.019155734032392503, 0.018538694828748703, 0.018953591585159302, 0.019010374695062636, 0.019222134351730348, 0.018107288144528867, 0.01809102613478899, 0.018587923049926756, 0.01812405474483967, 0.018615377321839332, 0.018392693623900412, 0.01862342990934849, 0.01825166866183281, 0.018043186515569687, 0.017628664895892144, 0.017854178696870802, 0.017366662994027136, 0.017261036857962608, 0.017404818534851076, 0.017221022769808768, 0.018070615828037262, 0.016601548157632352, 0.016534934751689434, 0.016794277355074883, 0.01633090302348137, 0.016648665815591813, 0.01668053511530161, 0.01657315231859684, 0.01605281140655279, 0.016358332708477974, 0.015469342097640037, 0.0159848190844059, 0.01602037623524666, 0.01704593300819397, 0.016869821399450303, 0.015510354936122895]","[0.23643453419208527, 0.2407764196395874, 0.2226952537894249, 0.2026495784521103, 0.1794160082936287, 0.14498768001794815, 0.12028966099023819, 0.10047415643930435, 0.08457879722118378, 0.07237157598137856, 0.06360096484422684, 0.056157100945711136, 0.05026089772582054, 0.04535764083266258, 0.041561877354979515, 0.038415249437093735, 0.03563757985830307, 0.03348520211875439, 0.031620901077985764, 0.03002609685063362, 0.028703978285193443, 0.027657559141516685, 0.026472777128219604, 0.025757770985364914, 0.024816160090267658, 0.024257869459688663, 0.023570146411657333, 0.023252425715327263, 0.022663092240691185, 0.02239523082971573, 0.021919074468314648, 0.021705922670662403, 0.021342173218727112, 0.021155678667128086, 0.0208569448441267, 0.02069709450006485, 0.020474365912377834, 0.020355180837213993, 0.020142060704529285, 0.019975746050477028, 0.019940774887800217, 0.019793921150267124, 0.019714290276169777, 0.0195395415648818, 0.01947155874222517, 0.019345632754266262, 0.01915297657251358, 0.019147892482578754, 0.01911488175392151, 0.018982378765940666, 0.0189049132168293, 0.018772046081721783, 0.018651895225048065, 0.018667378462851048, 0.01865531224757433, 0.018894475884735584, 0.018666365183889866, 0.018489588983356953, 0.018482466228306293, 0.018537389114499092, 0.018612094223499298, 0.018428383395075798, 0.018542703241109848, 0.018170022405683994, 0.01809122134000063, 0.01778388861566782, 0.017864054068922997, 0.01777781080454588, 0.017575710080564022, 0.01779884845018387, 0.017618386074900627, 0.017722517251968384, 0.01733221160247922, 0.017360021825879812, 0.01708263624459505, 0.017237639985978603, 0.017070764675736427, 0.016909086611121893, 0.016751900780946016, 0.016460613813251257, 0.016766094602644444, 0.016888315323740244, 0.016730602830648422, 0.01640642201527953, 0.016042018309235573, 0.01563473092392087, 0.01592595223337412, 0.015384820755571127, 0.014873972162604332, 0.015614220406860113, 0.014872772619128227, 0.01508855726569891, 0.014984823297709227, 0.014697914011776447, 0.014762762002646923, 0.014800121076405048, 0.015939407516270876, 0.01617866288870573, 0.014499488286674023, 0.014487467240542173]",0.054340767356822826,0.5237112884372498,0.03975404639031409,0.5584828593666251,0.0863826819571016,0.5838681263369825,0.22222222222222182,0.11255324199405138,0.7227583013473421,61.159655407071114,cuda
MITDB,175_MITDB_id_6_Medical_tr_27274_1st_27374,SG,cnn_autoencoder,128,83,83,64,150,0.001,"[0.05045238137245178, 0.04140529856085777, 0.03521294742822647, 0.02952902615070343, 0.023878250271081924, 0.020606355369091035, 0.017508773133158684, 0.015321948006749153, 0.013242952711880206, 0.011389753222465515, 0.009834674932062627, 0.009115994349122048, 0.008083357848227024, 0.006903703603893518, 0.006571028102189303, 0.005869285762310028, 0.005896089877933264, 0.005598251894116402, 0.00456889346241951, 0.004672147519886494, 0.00438047219067812, 0.0038930325768887996, 0.003575125290080905, 0.003213092964142561, 0.003557532047852874, 0.0029676748905330896, 0.0028358612675219775, 0.0029974177479743956, 0.002964339731261134, 0.0028392511885613203, 0.0029110142728313803, 0.0028786677401512863, 0.002702428586781025, 0.0028621004428714516, 0.0027217173017561437, 0.002706807991489768, 0.002948689367622137, 0.0024366446770727633, 0.0024482375010848045, 0.00239818983245641, 0.0023090866627171634, 0.0022386687342077494, 0.0026523425709456205, 0.0021789791993796826, 0.0023702367208898066, 0.0019820690620690586, 0.0023290437646210195, 0.0020516257733106612, 0.0020099952816963196, 0.001982847764156759, 0.0018869200488552452, 0.0017888913629576565, 0.0018996622413396836, 0.0015254247351549565, 0.0019221181748434902, 0.0013886300032027066, 0.0015053883893415333, 0.0018466569250449537, 0.0014215609757229687, 0.0016401214059442281, 0.0013216691091656684, 0.0014406275236979126, 0.0015605889959260822, 0.0012340296991169453, 0.0010867460281588138, 0.0010872234124690294, 0.0011103470576927065, 0.0009937366703525186, 0.0009890401503071188, 0.0010214678477495909, 0.0009134493884630501, 0.0009610109496861696, 0.0008994857897050678, 0.0011524977395310997, 0.0009376641944982111, 0.0009269410860724747, 0.0007973641389980912, 0.0012261154130101203, 0.0010994956130161882, 0.0010402655694633721, 0.0007910523563623428, 0.0008849824080243707, 0.0007120949798263609, 0.0008628647075966001, 0.0005868296837434172, 0.0007406596443615854, 0.00097619597800076, 0.0006062436266802251, 0.0006578963831998408, 0.000567376147955656, 0.0007019418990239501, 0.0007244892360176892, 0.0006183174555189908, 0.0006473050161730498, 0.0007620839925948531, 0.0007716088672168553, 0.000711562589276582, 0.0010361352935433388]","[0.04613320901989937, 0.04285172373056412, 0.037041569128632545, 0.03050821553915739, 0.024651626124978065, 0.019942205399274826, 0.0164524232968688, 0.013694875873625278, 0.011883599683642387, 0.010037628002464771, 0.008449887158349156, 0.007437655469402671, 0.006820311304181814, 0.00590927223674953, 0.005363489734008908, 0.005396956577897072, 0.004470215528272092, 0.004324256209656596, 0.0038177543319761753, 0.0035443457309156656, 0.0032950493041425943, 0.0029971819603815675, 0.0027470187633298337, 0.002617230114992708, 0.002505494514480233, 0.0024595987051725388, 0.002349549438804388, 0.002236442524008453, 0.0021536216081585735, 0.0020849876455031335, 0.0020145765447523445, 0.0020165313908364624, 0.001960615365533158, 0.0018963288166560233, 0.0019005209614988416, 0.0018826592422556132, 0.0018138128507416695, 0.0017513324273750186, 0.0018826851737685502, 0.00198818719945848, 0.0017392499139532447, 0.001717720355372876, 0.001641058479435742, 0.0017588685150258243, 0.001611362473340705, 0.001544445040053688, 0.0016820603923406452, 0.0015470214129891247, 0.0014741870108991861, 0.0013927450636401772, 0.0013440047478070483, 0.0012424020969774574, 0.0011973353539360687, 0.0011999653652310371, 0.0011763193178921938, 0.0011280451872153208, 0.0011202272726222873, 0.0010444396612001583, 0.0010239569091936573, 0.001035597175359726, 0.0009597230819053948, 0.0010758573625935242, 0.000956871168455109, 0.0009980927861761302, 0.0010693669901229441, 0.0010405598441138864, 0.0008882972761057317, 0.0008595233375672251, 0.0007476384344045073, 0.0007415785221382976, 0.0007075359026202932, 0.0006893728714203462, 0.000722530166967772, 0.0009544116910547018, 0.0007721295114606619, 0.0006669796421192586, 0.0006990027031861246, 0.0006721725076204166, 0.000783436160418205, 0.0007836087461328134, 0.0007467600225936621, 0.0006839468696853146, 0.0006105134016252123, 0.0005985675015836023, 0.0005664195268764161, 0.0005618351424345747, 0.0006155977171147242, 0.0005555698226089589, 0.0005576610783464275, 0.000530611774593126, 0.0005332778309821151, 0.0005433804326457903, 0.000514323815878015, 0.0005313060974003747, 0.0007647798920515925, 0.0005775397585239261, 0.0005320903292158619, 0.0005252633927739225]",0.044577377890451055,0.5348706210468667,0.04655751492070341,0.5706324433121145,0.11416749250949754,0.5172282923516369,0.16354344122657558,0.1287053090085603,0.7620329568048507,30.915314868092537,cuda
MITDB,175_MITDB_id_6_Medical_tr_27274_1st_27374,SG,resnet18_autoencoder_frozen,128,83,83,64,100,0.001,"[0.05974513441324234, 0.040746116638183595, 0.030564676970243454, 0.025975801050662994, 0.022662849724292757, 0.01753370836377144, 0.015447567030787469, 0.013469066470861435, 0.012830011174082756, 0.010988419875502586, 0.010229421220719815, 0.007908696308732033, 0.007014063186943531, 0.005932497140020132, 0.006367389764636755, 0.006634153518825769, 0.006818474549800157, 0.005230389256030321, 0.0054636701941490175, 0.004525038599967957, 0.005312422104179859, 0.00392495901323855, 0.004004942346364259, 0.0041094736661762, 0.0038835159968584774, 0.003920007776468992, 0.00392156639136374, 0.0034118975512683392, 0.003166193561628461, 0.004423979436978698, 0.004457752732560038, 0.004190183989703655, 0.0034622199833393096, 0.003512418735772371, 0.0032972665037959816]","[0.05789710581302643, 0.050767429172992706, 0.03973833657801151, 0.029647739604115486, 0.021336558274924755, 0.01624300703406334, 0.012593998108059168, 0.010339978616684675, 0.009138648631051183, 0.0089606496039778, 0.008070245618000627, 0.008392631774768233, 0.006857024156488478, 0.006473797489888966, 0.0061059306608513, 0.005104050098452717, 0.004213016101857647, 0.005410270998254418, 0.0040998625627253205, 0.0041331029497087, 0.0035781486658379436, 0.0033150957606267184, 0.003409611585084349, 0.003585083526559174, 0.0030555761622963473, 0.003220626065740362, 0.003761094150831923, 0.0035312134423293173, 0.003244934108806774, 0.0034550598356872797, 0.003689116914756596, 0.003470123396255076, 0.003763373417314142, 0.003213313175365329, 0.003287116123829037]",0.056850778143001386,0.5499148992727589,0.05485633219778896,0.5888298953737882,0.14577348867665366,0.6065794824597076,0.23161764705882304,0.17014742429675192,0.755596591590646,14.181210136972368,cuda
MITDB,175_MITDB_id_6_Medical_tr_27274_1st_27374,SG,resnet18_autoencoder_progressive_unfreeze,128,83,83,64,150,0.001,"[0.05483802407979965, 0.03846735134720802, 0.027990292757749557, 0.022773315012454987, 0.016825580969452858, 0.014024181477725505, 0.013053099811077117, 0.011652285978198052, 0.011073117516934872, 0.013031300343573093, 0.010139024537056684, 0.010894343629479409, 0.010524658299982548, 0.010042096115648746, 0.008316703606396914, 0.007290051225572825, 0.0066368635278195144, 0.008048425428569317, 0.007247418817132712, 0.006279290094971657, 0.005953245796263218, 0.00707095731049776, 0.005188252031803131, 0.006782201072201133, 0.004928609076887369, 0.005065050907433033, 0.003998883487656713, 0.003701426787301898, 0.005360233690589666, 0.0033763092942535877, 0.0031500314362347126, 0.003300760593265295, 0.0031896864995360373, 0.00295703262090683, 0.0031855762004852294, 0.0027368243783712385, 0.0029964456800371407, 0.0024926542304456235, 0.0025720257312059403, 0.002726442273706198, 0.002747449278831482, 0.0027149477042257785, 0.002444740990176797, 0.0024180561304092407, 0.0023998327320441603, 0.002441346296109259, 0.0021712662884965537, 0.0023993128444999455, 0.0037131255492568018, 0.0029332639183849095, 0.002841821638867259, 0.00295393206179142, 0.002340644411742687, 0.0021784496027976276, 0.0023222010117024184, 0.0027544618351384997, 0.0025262662442401052, 0.002346776518970728]","[0.04690937511622906, 0.04340603016316891, 0.03554435633122921, 0.025505105033516884, 0.017674269154667854, 0.013315200805664062, 0.011178727028891444, 0.01053708465769887, 0.009912071516737342, 0.008998339297249913, 0.008205291233025491, 0.007733823265880346, 0.007421344053000212, 0.006878554355353117, 0.006390480324625969, 0.006272902886848897, 0.006612882018089294, 0.0055226292461156845, 0.006347713875584304, 0.0055180302588269114, 0.00434067053720355, 0.004269679950084537, 0.004589787567965686, 0.005159575259312987, 0.003585524740628898, 0.0035046552075073123, 0.0030810471216682345, 0.002780959737719968, 0.002674356277566403, 0.002682723104953766, 0.0025166625855490565, 0.002382553822826594, 0.0022384900075849146, 0.0022468730458058417, 0.002045100642135367, 0.0021551732206717134, 0.002274072263389826, 0.002397542353719473, 0.002015129430219531, 0.0018055146065307781, 0.0017130210035247728, 0.001746493551763706, 0.0018110921955667436, 0.0016863624041434377, 0.001750102499499917, 0.0020041350508108735, 0.0016006790101528168, 0.0015473479579668492, 0.0019214424246456474, 0.0018889544298872352, 0.0016261316341115162, 0.002035217999946326, 0.0017201335285790265, 0.001517167198471725, 0.0016089670243673027, 0.0017488296725787222, 0.0018067553610308096, 0.0018954165134346113]",0.12688148724083098,0.5548418566123209,0.09357244448208227,0.5927252442664509,0.19280980953313978,0.8184434849994465,0.5301204819277103,0.3258085188595987,0.796311100494399,27.38892656797543,cuda
MITDB,175_MITDB_id_6_Medical_tr_27274_1st_27374,SG,resnet18_autoencoder_differential_lr,128,83,83,64,100,0.001,"[0.061548580229282376, 0.047624284774065016, 0.040983088314533234, 0.03625879660248756, 0.030167585983872414, 0.023735005781054495, 0.01994255408644676, 0.018542900308966638, 0.0154242604970932, 0.014516038633883, 0.011397373862564564, 0.012179630436003208, 0.011774290725588799, 0.012530070170760155, 0.011333753354847431, 0.010063502937555313, 0.010944707319140434, 0.009419170208275318, 0.008707333449274301, 0.01128217913210392, 0.008936679363250733, 0.007868148479610681, 0.009623946901410819, 0.008303338568657637, 0.007768617663532496, 0.0073803718201816085, 0.008242993522435427, 0.007707357965409755, 0.00849860580638051, 0.007232813816517592, 0.009872451052069664, 0.008431983180344105, 0.009262109734117984, 0.007498557586222887, 0.008160833735018969, 0.007161520980298519, 0.007161093689501285, 0.007124742865562439, 0.006416895613074303, 0.00621811393648386, 0.006482158415019512, 0.005979872122406959, 0.006593794282525778, 0.005492500308901071, 0.006020985636860132, 0.00502581000328064, 0.0043517078272998335, 0.004621852096170187, 0.004515018779784441, 0.005712777841836214, 0.00463355234824121, 0.005364931328222156, 0.005054919049143791, 0.004543877858668566, 0.004772540694102645, 0.0056188131216913465, 0.0037188712041825054]","[0.05207277275621891, 0.048141589388251305, 0.04270845837891102, 0.035312382504343987, 0.026989473029971123, 0.02070774231106043, 0.01581605803221464, 0.012774989008903503, 0.010889466386288404, 0.009603255428373814, 0.00881853117607534, 0.007928554899990559, 0.007488231407478452, 0.007151868427172303, 0.006873939419165254, 0.006486445432528853, 0.006305497605353594, 0.006389316054992378, 0.005958855850622058, 0.005500569357536733, 0.005685992655344307, 0.0054451769683510065, 0.0055028474889695644, 0.00530889059882611, 0.00521293212659657, 0.005641477182507515, 0.005489007919095457, 0.005624717799946666, 0.005813714466057718, 0.00525533442851156, 0.005068969912827015, 0.005712402635253966, 0.005712983664125204, 0.005055905552580953, 0.005020837765187025, 0.004971412476152182, 0.005071553168818355, 0.006394836585968733, 0.005310159875079989, 0.00478773657232523, 0.0047693015076220036, 0.005141975358128548, 0.005236451979726553, 0.005602820310741663, 0.004326669382862747, 0.004262711852788925, 0.003973374143242836, 0.004556694533675909, 0.004523830721154809, 0.004610168747603893, 0.0054994558449834585, 0.004868304822593927, 0.00513008376583457, 0.004581077257171273, 0.004261487163603306, 0.003991535631939769, 0.004205609671771526]",0.057545113109536736,0.5356634726921077,0.05894252611753777,0.5741551656143138,0.14317460869106016,0.6418773436554978,0.2956645344705042,0.21242889136659088,0.7932430429027786,26.716036058962345,cuda
MITDB,175_MITDB_id_6_Medical_tr_27274_1st_27374,SG,pvt_autoencoder_frozen,128,83,83,64,100,0.001,"[0.04875848144292831, 0.03211703188717365, 0.02372087351977825, 0.018609318323433398, 0.014832094870507717, 0.012570498697459697, 0.01134135015308857, 0.013026455231010915, 0.010559269785881042, 0.00980222001671791, 0.009286372736096383, 0.007772891316562891, 0.006921148765832186, 0.00570928193628788, 0.005737058352679014, 0.004817501083016396, 0.00447469912469387, 0.0046215512789785865, 0.004114749049767852, 0.004082254227250814, 0.0040786753874272105, 0.0037184570915997027, 0.00393836316652596, 0.0042640658561140295, 0.003676858264952898, 0.003453609999269247, 0.003225499065592885, 0.00338255250826478, 0.0030327723827213047, 0.0031683846842497586, 0.003083040798082948, 0.0034369641914963724, 0.0031278436072170734, 0.003083730908110738, 0.002546966960653663]","[0.046061620116233826, 0.042091092094779015, 0.03355121798813343, 0.022306084632873535, 0.014635561034083366, 0.010522869415581226, 0.008635952835902572, 0.007489123730920255, 0.007067039958201349, 0.006418617675080895, 0.005846830434165895, 0.005696829874068499, 0.005755850346758962, 0.005102939321659505, 0.004729924607090652, 0.004727834486402571, 0.004054049612022936, 0.0030667270766571164, 0.0032274441327899694, 0.003115615458227694, 0.003147767565678805, 0.0027378933737054467, 0.002778200985630974, 0.0025719230761751533, 0.0024695556494407356, 0.0025133453018497676, 0.0027070674987044185, 0.002408555053989403, 0.0024165492359315977, 0.002648347697686404, 0.0033276600297540426, 0.002693533489946276, 0.0024667159595992416, 0.0025414139963686466, 0.002382055710768327]",0.08352097506874036,0.5954871050285704,0.07342194357161597,0.6350992688486657,0.15467145730624607,0.6732434629074298,0.3548387096774188,0.2106536262882935,0.791028381918641,18.237305799964815,cuda
MITDB,175_MITDB_id_6_Medical_tr_27274_1st_27374,SG,pvt_autoencoder_progressive_unfreeze,128,83,83,64,150,0.001,"[0.045481263846158984, 0.03005799576640129, 0.021644319221377373, 0.016881055012345315, 0.013572809845209121, 0.011332698911428452, 0.010284222289919853, 0.008052920922636986, 0.006281293276697397, 0.005911398213356733, 0.005254323408007622, 0.004617318511009216, 0.003992962650954723, 0.0037768532056361437, 0.003716266620904207, 0.003769513964653015, 0.003437734255567193, 0.0037713909521698953, 0.0029808016028255225, 0.0034546010196208955, 0.011080336757004261, 0.010823257453739642, 0.00878485683351755, 0.0065763814374804495, 0.0051101493183523415, 0.004107830813154578, 0.0035479839891195296, 0.0034882234409451484, 0.0030672063119709493]","[0.048417240381240845, 0.042149487882852554, 0.03049934934824705, 0.01952951680868864, 0.012471127323806286, 0.008112606592476368, 0.006333096418529749, 0.0055452605010941625, 0.0055091684916988015, 0.00537388538941741, 0.004438573494553566, 0.004127493593841791, 0.003967294469475746, 0.002892268297728151, 0.002970472676679492, 0.002967600477859378, 0.002735173038672656, 0.00272169298841618, 0.0024597180308774114, 0.0026159274275414646, 0.007351253647357225, 0.006087520392611623, 0.005585881299339235, 0.006148678716272116, 0.006901910994201899, 0.006820761598646641, 0.0024564274062868208, 0.002644045976921916, 0.003025724785402417]",0.09764216794726435,0.5920142151879138,0.07912636685131859,0.6285319829493254,0.16832256199561146,0.6960573881608676,0.33766233766233716,0.2095000646953351,0.8257677121262376,15.186137925134972,cuda
MITDB,175_MITDB_id_6_Medical_tr_27274_1st_27374,SG,pvt_autoencoder_differential_lr,128,83,83,64,100,0.001,"[0.06183252781629563, 0.04047338329255581, 0.030134082213044165, 0.023067648336291314, 0.020304864272475243, 0.016274838894605636, 0.014856553636491299, 0.013006257452070713, 0.011336049530655146, 0.0111267801374197, 0.011047935672104358, 0.009170471900142729, 0.012117850221693515, 0.009442526567727327, 0.010681651718914508, 0.009358649514615536, 0.010742118768393993, 0.00848249439150095, 0.008056047093123197, 0.00794027941301465, 0.006737435981631279, 0.006600911542773247, 0.006287272088229656, 0.006215868610888719, 0.005106316320598126, 0.00517315580509603, 0.005775104090571403, 0.005218874756246805, 0.004701095726341009, 0.004094306146726012, 0.003492430178448558, 0.0038338151294738053, 0.0036216563545167445, 0.0033484463579952716, 0.0035906312987208366, 0.00439855782315135, 0.0036005771718919275, 0.0038098301738500595, 0.0032946917228400706, 0.002686379454098642, 0.003502196026965976, 0.0029125983361154794, 0.0033502269070595503, 0.0025677466066554187, 0.003404740849509835, 0.0021935140946879985, 0.0025061576161533594, 0.0023897166829556227, 0.002306300727650523, 0.0031226532068103553, 0.0027147889137268066, 0.002497303090058267, 0.0029174373019486667, 0.002949701528996229, 0.002411535428836942, 0.002903685159981251, 0.002554872399196029, 0.002287193760275841, 0.00224780342541635, 0.0021844337694346904, 0.002145125181414187, 0.0028274500044062735, 0.0019554484635591505, 0.001806498470250517, 0.0019169115694239736, 0.001979651302099228, 0.002030379860661924, 0.0019190243445336818, 0.001832331856712699, 0.001609539007768035, 0.00186061835847795, 0.0017633482813835144, 0.002102537057362497, 0.0019255239749327302, 0.0018227039836347103, 0.0014615994645282627, 0.001678273780271411, 0.0016922558657824992, 0.0015208072029054165, 0.0017654618015512824]","[0.05362492427229881, 0.047463830560445786, 0.03764546290040016, 0.025591155514121056, 0.01729627139866352, 0.014582275878638029, 0.013983090873807669, 0.011277790181338787, 0.01435033418238163, 0.009567744797095656, 0.007869768887758255, 0.007600802811793983, 0.007154269376769662, 0.007120435358956456, 0.00715090986341238, 0.0064799056854099035, 0.005860359175130725, 0.005982361268252134, 0.006098441197536886, 0.007254683645442128, 0.0056825130013749, 0.007388048805296421, 0.006458130432292819, 0.00463126169051975, 0.010082918219268322, 0.007309972774237394, 0.004096590855624527, 0.0031175849435385317, 0.0029064709087833762, 0.002792450541164726, 0.003211289760656655, 0.0033090621000155807, 0.0030362666584551334, 0.002650557871675119, 0.002719850221183151, 0.002471390034770593, 0.0030756432097405195, 0.0027339551015757024, 0.002979767508804798, 0.0030720458598807454, 0.002022932836553082, 0.002026056812610477, 0.0018617695168359205, 0.00210324430372566, 0.0021119722514413297, 0.0021958358702249825, 0.0022794368560425937, 0.0017622120212763548, 0.0021698375639971346, 0.0019267643510829657, 0.0022734018857590854, 0.00186321564251557, 0.001682822941802442, 0.002150951069779694, 0.002395051356870681, 0.001550507207866758, 0.002209973114077002, 0.0018682607915252447, 0.001852047018473968, 0.0018423937144689262, 0.0019020927138626575, 0.0016545330872759223, 0.001753355929395184, 0.001408102732966654, 0.001433785306289792, 0.0014132135838735849, 0.0013669014006154612, 0.0013706802419619635, 0.001319053815677762, 0.0013033942959737033, 0.0013208819727879018, 0.0013065131206531078, 0.0013495407765731215, 0.0013605891144834459, 0.0013180027017369866, 0.0012698991049546748, 0.0012713813921436667, 0.001284924306673929, 0.001212057686643675, 0.0013263415021356195]",0.13925831976695738,0.5529822733815896,0.09869710047123323,0.5901021775638878,0.20834229161584492,0.8341959084134941,0.5947712418300648,0.3311782588513302,0.8559254359808167,44.668766152113676,cuda
MITDB,175_MITDB_id_6_Medical_tr_27274_1st_27374,GASF,cnn_autoencoder,128,83,83,64,150,0.001,"[0.1372362494468689, 0.12342661321163177, 0.11699834913015365, 0.11042323708534241, 0.10776414722204208, 0.10366766452789307, 0.09279569387435913, 0.08749866038560868, 0.07546949535608291, 0.06674553602933883, 0.059956640005111694, 0.05494444817304611, 0.050607793033123016, 0.04751994982361794, 0.04106123074889183, 0.03883771523833275, 0.035701173543930056, 0.03133420385420323, 0.02894364483654499, 0.02792482227087021, 0.02650289051234722, 0.025337745994329454, 0.022443458065390588, 0.024288103729486466, 0.021849221363663674, 0.023144089430570603, 0.0225765336304903, 0.021136681735515594, 0.020467625930905342, 0.017119906097650527, 0.016186285577714444, 0.016376618668437003, 0.014651934243738651, 0.014361401461064816, 0.015168000198900699, 0.015143393166363239, 0.01313757598400116, 0.012484990246593951, 0.013007495179772377, 0.012531737983226775, 0.012901701778173447, 0.015057394094765187, 0.012954587116837502, 0.012797019258141518, 0.011076616868376733, 0.012831504084169864, 0.010872778668999671, 0.01015209686011076, 0.010623876750469208, 0.010329971648752689, 0.010193488933146, 0.008942338358610868, 0.011555294319987298, 0.009443181566894054, 0.010820369049906731, 0.010537208430469036, 0.009924077615141868, 0.01000236552208662, 0.009189382568001747, 0.010351695120334625, 0.009656796045601369, 0.009011620655655861, 0.008490418270230293, 0.008333435654640198, 0.008472717180848122, 0.008467376232147217, 0.0091293103992939, 0.009005570691078902, 0.008229960780590772, 0.008866588398814202, 0.010940845683217048, 0.008248053025454283, 0.007857256289571523, 0.009344838745892047, 0.0072866611182689665, 0.007826995477080346, 0.007664219848811627, 0.008515950292348862, 0.008397957216948271, 0.008816157188266515, 0.011573220882564784, 0.009350259602069855, 0.008627987932413816, 0.008534048404544591, 0.017294704262167216, 0.017652994208037853, 0.008611160144209862, 0.008904283214360476, 0.008810696750879287, 0.008267661742866039, 0.008445740025490523, 0.007569549698382616, 0.00785060813650489, 0.007022045645862817, 0.0074759148061275486, 0.008819874189794064]","[0.11830712482333183, 0.1159675158560276, 0.1120830662548542, 0.10442150756716728, 0.09467659518122673, 0.08467235043644905, 0.07798325270414352, 0.07297160476446152, 0.06296312808990479, 0.05501725897192955, 0.04960554465651512, 0.04329943470656872, 0.042349427938461304, 0.03638998046517372, 0.03273622505366802, 0.030535145662724972, 0.029557405039668083, 0.028879561461508274, 0.025294710882008076, 0.02279373351484537, 0.022521235048770905, 0.02029686700552702, 0.019156288355588913, 0.019202275201678276, 0.017851313576102257, 0.020577114075422287, 0.019165349192917347, 0.018348516896367073, 0.017777678556740284, 0.016701212152838707, 0.015730812679976225, 0.01541995257139206, 0.014574940782040358, 0.0139169255271554, 0.014817981515079737, 0.01332477480173111, 0.014090364333242178, 0.012724514119327068, 0.01334388367831707, 0.012286481447517872, 0.012139325961470604, 0.012109746225178242, 0.011935435235500336, 0.011231436394155025, 0.011177438776940107, 0.01085717137902975, 0.010685275308787823, 0.010262977331876755, 0.010749207809567451, 0.009808909613639116, 0.01012707781046629, 0.009630343411117792, 0.010187741369009018, 0.009679358452558517, 0.009814437478780746, 0.010361654218286276, 0.010368824005126953, 0.010751841589808464, 0.009360463824123144, 0.009579833596944809, 0.009425972122699022, 0.010268211364746094, 0.00975536135956645, 0.008868977893143892, 0.00865882821381092, 0.009031191933900118, 0.008940330240875483, 0.008829344529658556, 0.009862036444246769, 0.009236760437488556, 0.009109440259635448, 0.009116984903812408, 0.009018787182867527, 0.009049614891409874, 0.008446689695119858, 0.008446947205811739, 0.00836976245045662, 0.008411341346800327, 0.008606848772615194, 0.008776170667260885, 0.008295056875795126, 0.009015792049467564, 0.008569007739424706, 0.008349125739187002, 0.008490628097206354, 0.009817143436521292, 0.009474832564592361, 0.009170731529593468, 0.008816220331937075, 0.008773306384682655, 0.008780774660408497, 0.008665892761200666, 0.008624006062746048, 0.00845332257449627, 0.008383396081626415, 0.008778288960456848]",0.04196413324429713,0.5946409261838991,0.05481343150579928,0.653182795741644,0.08595171461078648,0.48162346703286224,0.1304755580807905,0.09152153863707664,0.7285465219685601,33.05218726210296,cuda
MITDB,175_MITDB_id_6_Medical_tr_27274_1st_27374,GASF,resnet18_autoencoder_frozen,128,83,83,64,100,0.001,"[0.12366339713335037, 0.10629233121871948, 0.09185071289539337, 0.07728828489780426, 0.07037419527769088, 0.06345639675855637, 0.056789372116327286, 0.05183637961745262, 0.047560571879148486, 0.04278087988495827, 0.04154304713010788, 0.0383701503276825, 0.03573084324598312, 0.03436448313295841, 0.03069588281214237, 0.0335142832249403, 0.03077767938375473, 0.026465705409646035, 0.026936322823166846, 0.02405702918767929, 0.02531673274934292, 0.02295844592154026, 0.02485261596739292, 0.039258602634072305, 0.025371574610471726, 0.023349215835332872, 0.02249686196446419, 0.020332637429237365, 0.020281751826405525, 0.02040809690952301, 0.02317303605377674, 0.022381912171840667, 0.021241405978798866, 0.02039918601512909, 0.018437164649367333, 0.021243028715252875, 0.019045373797416686, 0.01999998651444912, 0.01752455085515976, 0.021176430210471154, 0.017832846008241178, 0.019919372536242007, 0.018183614127337933, 0.022049799934029578, 0.01649109087884426, 0.0158527635037899, 0.015648612938821315, 0.016128983162343503, 0.018098784424364567]","[0.11384648084640503, 0.11036413535475731, 0.10477668792009354, 0.09688292071223259, 0.08126465976238251, 0.07216126471757889, 0.07329448312520981, 0.06283583492040634, 0.0644972026348114, 0.06123202107846737, 0.06499121710658073, 0.056246425956487656, 0.05547703802585602, 0.05373176746070385, 0.04932091198861599, 0.0481228344142437, 0.05105469562113285, 0.036464888602495193, 0.035907138139009476, 0.029272657819092274, 0.02568764053285122, 0.028678538277745247, 0.028491239994764328, 0.02750890888273716, 0.028873130679130554, 0.027544178999960423, 0.026328325271606445, 0.026292763650417328, 0.025229068472981453, 0.024093251675367355, 0.024511894211173058, 0.0282850693911314, 0.02714683022350073, 0.0272293109446764, 0.027641753666102886, 0.026278002187609673, 0.024657800793647766, 0.024212565273046494, 0.023558232933282852, 0.02379610948264599, 0.023815786466002464, 0.023815124295651913, 0.023498201742768288, 0.023746741004288197, 0.02418638952076435, 0.0242577800527215, 0.02506212517619133, 0.023697907105088234, 0.02350358571857214]",0.04563599783342148,0.6366407851093995,0.053026999842677947,0.6825604870882404,0.09057876531540614,0.4752635077390561,0.11522787038638391,0.08662644280129185,0.7063107336934299,22.80618996778503,cuda
MITDB,175_MITDB_id_6_Medical_tr_27274_1st_27374,GASF,resnet18_autoencoder_progressive_unfreeze,128,83,83,64,150,0.001,"[0.13133625090122222, 0.10893135517835617, 0.09225669801235199, 0.07843221873044967, 0.06928800493478775, 0.06020838990807533, 0.05449713319540024, 0.048344831168651584, 0.04642584174871445, 0.04245556220412254, 0.04259587153792381, 0.038873782753944396, 0.03739755600690842, 0.04020521566271782, 0.03968320675194263, 0.03558666706085205, 0.03196854814887047, 0.033580415323376654, 0.02762054093182087, 0.026940571144223213, 0.033115580677986145, 0.032500746101140975, 0.02356068380177021, 0.02674807608127594, 0.022964711114764214, 0.020730984583497047, 0.01941797398030758, 0.019451178982853888, 0.021821759268641473, 0.01821823976933956, 0.017894456535577773, 0.01665500607341528, 0.018815385177731514, 0.022796716913580893, 0.01852656789124012, 0.016838354244828223, 0.01621045432984829, 0.015515354089438915, 0.015439114347100259, 0.02072087414562702, 0.014545535668730736, 0.018389337137341498, 0.015788965113461017, 0.01552847884595394, 0.016227774694561957, 0.017013209499418737, 0.015273196808993816, 0.01642272565513849, 0.01818420421332121, 0.02608469855040312]","[0.11959211155772209, 0.11546146124601364, 0.10804073885083199, 0.09796707332134247, 0.08630287274718285, 0.08252483606338501, 0.08196065202355385, 0.07156750187277794, 0.06749553605914116, 0.06334707140922546, 0.057998958975076675, 0.04795365035533905, 0.051106518134474754, 0.05305985547602177, 0.04587998799979687, 0.04271248169243336, 0.03971414268016815, 0.033078708685934544, 0.03304365463554859, 0.028842614963650703, 0.030929173342883587, 0.028321625664830208, 0.026756318286061287, 0.0235999571159482, 0.024215156212449074, 0.022646536119282246, 0.02239630278199911, 0.021678962744772434, 0.021644162945449352, 0.02279765997081995, 0.021983987651765347, 0.022478805854916573, 0.021989963948726654, 0.023633788339793682, 0.020796910859644413, 0.020600643008947372, 0.021294226869940758, 0.020168576389551163, 0.018269903026521206, 0.01797671988606453, 0.020833509974181652, 0.020924021489918232, 0.020558342337608337, 0.020722615532577038, 0.01961051020771265, 0.021769448183476925, 0.021953695453703403, 0.020680061541497707, 0.020943818613886833, 0.01901363767683506]",0.048286397644794365,0.6507511626266775,0.057694267173928664,0.7019966691049501,0.10420233922868531,0.4515756122623737,0.12068965517241341,0.0939215923038156,0.717123957392108,24.059229445876554,cuda
MITDB,175_MITDB_id_6_Medical_tr_27274_1st_27374,GASF,resnet18_autoencoder_differential_lr,128,83,83,64,100,0.001,"[0.13545940816402435, 0.1138598531484604, 0.0966631904244423, 0.088962222635746, 0.07598315179347992, 0.06415655016899109, 0.056307480484247205, 0.05506344735622406, 0.048260952532291415, 0.0534880094230175, 0.04480336904525757, 0.04060624614357948, 0.04296315386891365, 0.04112480655312538, 0.03741665929555893, 0.033398069068789484, 0.03159898668527603, 0.03667480945587158, 0.030774158611893653, 0.033437953889369966, 0.03295063003897667, 0.02540353052318096, 0.03157154992222786, 0.02396523542702198, 0.0233111884444952, 0.024374543502926827, 0.022407817468047143, 0.023975156992673875, 0.023942259326577186, 0.028239356726408003, 0.021707652509212493, 0.020825593173503874, 0.01882530450820923, 0.02195571959018707, 0.024672194197773934, 0.021607174724340438, 0.021029411628842355, 0.025521059706807136, 0.021980755776166917, 0.028257627785205842, 0.023410197347402573, 0.02018350251019001, 0.019561826810240747, 0.01875111535191536, 0.020369193330407143, 0.018956607580184935, 0.032575725391507146, 0.017216883599758148, 0.018850381299853326, 0.01993442848324776, 0.017247924022376536, 0.024843580834567548, 0.021499106846749782, 0.016944449953734876, 0.01899425871670246, 0.015367652475833892, 0.015444906428456306, 0.01548664104193449, 0.020079105719923974, 0.014491278305649757, 0.015612174570560456, 0.016996920667588712, 0.017629473097622396, 0.01382786948233843, 0.018595251627266406, 0.015901486948132516, 0.014097180590033532, 0.013139114156365395, 0.014736519567668438, 0.014073729515075684, 0.014151142351329327, 0.016673081181943418]","[0.11913534626364708, 0.1143573448061943, 0.09957438334822655, 0.08052350953221321, 0.06707611493766308, 0.054759806022047997, 0.04683870077133179, 0.04333854466676712, 0.04080842528492212, 0.03916882537305355, 0.03894328512251377, 0.036048805341124535, 0.03468891605734825, 0.031249944120645523, 0.03541531600058079, 0.034280942752957344, 0.02916114404797554, 0.027200421318411827, 0.028576106764376163, 0.02829151414334774, 0.028562291525304317, 0.028118682093918324, 0.026911425404250622, 0.027356833219528198, 0.024337376467883587, 0.022788815200328827, 0.02380482479929924, 0.02377999946475029, 0.022144821472465992, 0.023119534365832806, 0.021245786920189857, 0.021497562527656555, 0.020606202073395252, 0.02060186304152012, 0.021989060565829277, 0.022246945649385452, 0.02112255059182644, 0.021024083718657494, 0.022037632763385773, 0.022714002057909966, 0.02160998247563839, 0.021035751327872276, 0.020339311100542545, 0.02055834699422121, 0.02067390736192465, 0.019025221467018127, 0.019235768355429173, 0.021502106450498104, 0.02016250602900982, 0.01797260995954275, 0.01756353583186865, 0.018220968544483185, 0.01868824753910303, 0.018035760149359703, 0.017504670657217503, 0.01840546540915966, 0.01816695276647806, 0.017365360632538795, 0.018079062923789024, 0.018220766447484493, 0.017378540709614754, 0.016640876419842243, 0.016569482162594795, 0.01664208434522152, 0.017696036957204342, 0.01837141439318657, 0.017558494582772255, 0.018034405075013638, 0.0175966564565897, 0.01720506977289915, 0.01707199402153492, 0.017291289754211903]",0.04485156388836124,0.6518657959892036,0.0555768952387669,0.7052786953388598,0.09745651628140475,0.36721462539698213,0.10753722423338231,0.0838463218861681,0.7185176059166848,34.90705330413766,cuda
MITDB,175_MITDB_id_6_Medical_tr_27274_1st_27374,GASF,pvt_autoencoder_frozen,128,83,83,64,100,0.001,"[0.13563112616539003, 0.10413320511579513, 0.08761615306138992, 0.07373731732368469, 0.06406782940030098, 0.05671014040708542, 0.049064484983682634, 0.0510779045522213, 0.0428608313202858, 0.04285866469144821, 0.03454514034092426, 0.03278786726295948, 0.03018539771437645, 0.025506892800331117, 0.023393961414694787, 0.02144419364631176, 0.019723938778042793, 0.019313902780413627, 0.01821225360035896, 0.01677463762462139, 0.01770830899477005, 0.01719395164400339, 0.018595212325453758, 0.015921985357999803, 0.016574428416788578, 0.018274738639593124, 0.015506313554942608, 0.01531362347304821, 0.014487115293741226, 0.013971496187150479, 0.015117647498846054, 0.013234395906329155, 0.013348811119794846, 0.012969674728810787, 0.01325190644711256, 0.012977219186723232, 0.012973451614379882, 0.011568556353449822, 0.012219229899346828, 0.011882415041327477, 0.011111955158412457]","[0.12345778197050095, 0.11407081037759781, 0.09521910920739174, 0.08282329887151718, 0.06925737485289574, 0.05891020596027374, 0.05965797230601311, 0.045253222808241844, 0.0442233607172966, 0.04970340244472027, 0.03800630941987038, 0.036659110337495804, 0.031748426146805286, 0.025609532371163368, 0.02697154600173235, 0.02607121877372265, 0.02362828142940998, 0.022076738998293877, 0.02511207852512598, 0.021771435625851154, 0.02057713456451893, 0.021701068617403507, 0.020394781604409218, 0.021346259862184525, 0.019528502598404884, 0.020920997485518456, 0.02101913094520569, 0.019710217602550983, 0.019596743397414684, 0.01898868288844824, 0.018825032748281956, 0.01985334325581789, 0.020498517900705338, 0.02281974535435438, 0.021304171532392502, 0.02086898684501648, 0.021901188418269157, 0.021083137951791286, 0.0206850478425622, 0.02001127600669861, 0.020329839549958706]",0.056951222510200225,0.6504334410027739,0.06440793983321996,0.7022202018662754,0.11777973614153305,0.6128803963198868,0.20536756126020958,0.1341563152742354,0.7481501727217715,20.069469102891162,cuda
MITDB,175_MITDB_id_6_Medical_tr_27274_1st_27374,GASF,pvt_autoencoder_progressive_unfreeze,128,83,83,64,150,0.001,"[0.12521378099918365, 0.10133619010448455, 0.08818536549806595, 0.07965594828128815, 0.07046266198158264, 0.06327079683542251, 0.05353336706757546, 0.048427312076091765, 0.04414108768105507, 0.04251763671636581, 0.03448793664574623, 0.033206600695848465, 0.030645865947008133, 0.029493918642401695, 0.025610809028148652, 0.024121209606528284, 0.022632665932178497, 0.023348500579595567, 0.02081538029015064, 0.01774834394454956, 0.03879491984844208, 0.03259486146271229, 0.0287418108433485, 0.02348150983452797, 0.02651139162480831, 0.02047591023147106, 0.023721512779593466, 0.018422401696443557, 0.018103225342929363, 0.016075679287314414, 0.01519964300096035, 0.014818455837666989, 0.01518897172063589, 0.01428361814469099, 0.013909560069441796, 0.013576087728142738, 0.012046239525079726, 0.013134166970849038, 0.012881614454090595, 0.012774781510233878, 0.012086144275963306, 0.013750087097287178, 0.012476412393152714, 0.010547192022204398, 0.01304085273295641, 0.01126240324229002, 0.011674916557967662, 0.010916406475007533, 0.010392999835312366, 0.010162614658474923, 0.010267527215182782, 0.00954669453203678, 0.009258241951465606, 0.010662354901432991, 0.009456444904208184, 0.009313321113586426, 0.009112927690148353, 0.009572252072393895, 0.009524300135672093, 0.009379659406840801, 0.010614589042961597, 0.00932798720896244, 0.008896329067647457, 0.009439081139862537, 0.00899574402719736, 0.00885611679404974, 0.009008626639842986, 0.009420355968177318, 0.013723360560834407, 0.008630474843084813, 0.009456297010183334, 0.009076390601694583, 0.008562846574932337, 0.008724480122327804, 0.008864195086061954]","[0.11412791162729263, 0.10783392563462257, 0.0956595353782177, 0.08565061539411545, 0.0702018216252327, 0.06241257302463055, 0.06253726594150066, 0.052266787737607956, 0.04876143857836723, 0.044172223657369614, 0.040933772921562195, 0.03651996701955795, 0.034521060064435005, 0.03141721896827221, 0.028740722686052322, 0.026340224780142307, 0.02613045834004879, 0.02553478442132473, 0.022260790690779686, 0.023464245721697807, 0.038927290588617325, 0.03135842364281416, 0.026507340371608734, 0.02251309249550104, 0.022563901729881763, 0.019354176707565784, 0.0194194158539176, 0.019208895973861217, 0.01826299075037241, 0.016792399808764458, 0.016848386265337467, 0.01609189761802554, 0.016568895429372787, 0.01515162456780672, 0.01471618888899684, 0.015675672329962254, 0.013910140842199326, 0.014687065966427326, 0.01505246153101325, 0.014342869631946087, 0.01459276070818305, 0.015083387028425932, 0.01442200317978859, 0.014313025400042534, 0.013997009489685297, 0.013784810435026884, 0.01374117098748684, 0.01330918399617076, 0.013470280915498734, 0.013757882174104452, 0.014162987004965544, 0.013511440716683865, 0.01332172891125083, 0.013311074115335941, 0.013346669729799032, 0.012858121655881405, 0.012993020471185446, 0.013466810807585716, 0.013464007060974836, 0.013198865577578545, 0.013257639016956091, 0.013462078291922808, 0.012833779212087393, 0.012818796560168266, 0.01248316653072834, 0.012738199904561043, 0.01296087633818388, 0.013087071944028139, 0.012865343131124973, 0.015680734533816576, 0.016265285201370716, 0.015426828525960445, 0.015049517154693604, 0.014537404756993055, 0.014879786875098944]",0.0490022378928848,0.6723644952608755,0.06035311648187743,0.7254154884711247,0.11095730981689056,0.401334383542603,0.12367303331817037,0.09328723860471143,0.7285628499805681,42.99145259382203,cuda
MITDB,175_MITDB_id_6_Medical_tr_27274_1st_27374,GASF,pvt_autoencoder_differential_lr,128,83,83,64,100,0.001,"[0.11077453494071961, 0.09021813124418258, 0.07569303065538406, 0.06452222913503647, 0.05945884808897972, 0.055237621814012525, 0.052376025915145875, 0.05192030817270279, 0.04655756652355194, 0.039921834319829944, 0.0376604400575161, 0.03516359440982342, 0.039146282523870465, 0.038505136221647265, 0.03400598205626011, 0.02823169343173504, 0.02674425356090069, 0.0254597220569849, 0.02488788515329361, 0.0236941646784544, 0.02681155726313591, 0.02168799228966236, 0.021044494211673738, 0.01958595812320709, 0.018742689862847328, 0.018503192439675333, 0.018453383818268776, 0.020403335988521575, 0.019450119882822036, 0.018259374424815178, 0.018914907053112984, 0.017829231917858124, 0.016867738962173463, 0.016872726380825043, 0.0143625283613801, 0.014797698706388474, 0.014374899119138718, 0.014421706646680832, 0.014818762429058552, 0.0160930497571826, 0.014771755784749985, 0.0133067661896348, 0.01330204177647829, 0.013233657553792, 0.01375275757163763, 0.012482556141912937, 0.013057251274585725, 0.013499081321060657, 0.011948867700994015, 0.012186935730278492, 0.012171206437051297, 0.011441041901707649, 0.01259787157177925, 0.011653239838778973, 0.011885865963995457, 0.01283286027610302, 0.011042669788002968, 0.011148298904299737, 0.010901490971446038, 0.01100742481648922, 0.011660774238407612, 0.011135260760784148, 0.010805802606046199, 0.01264889370650053, 0.010202634148299694, 0.011314013227820396, 0.01080001387745142, 0.011222435720264911, 0.010467472486197948, 0.010860794968903065, 0.009745708107948304, 0.009558587335050106, 0.00948041845113039, 0.009822874143719674]","[0.10628287121653557, 0.10257801786065102, 0.08994188904762268, 0.07334567978978157, 0.0655968114733696, 0.06194274686276913, 0.06027723476290703, 0.052689600735902786, 0.05084606632590294, 0.04590470902621746, 0.04443233460187912, 0.04064318165183067, 0.040529536083340645, 0.036768676713109016, 0.03390334639698267, 0.03313238546252251, 0.029827995225787163, 0.02913220413029194, 0.025883333757519722, 0.02341778762638569, 0.023756452836096287, 0.02219506725668907, 0.020984044298529625, 0.0196607643738389, 0.02153436839580536, 0.01883491687476635, 0.018338453024625778, 0.018218436278402805, 0.018659349530935287, 0.017546999268233776, 0.017970378510653973, 0.0165547258220613, 0.01579159079119563, 0.0185052203014493, 0.015062704682350159, 0.017216802574694157, 0.015261937398463488, 0.015160615555942059, 0.016088382340967655, 0.01608917396515608, 0.015818655490875244, 0.014987549278885126, 0.014673213474452496, 0.0154366884380579, 0.014886066783219576, 0.013563164044171572, 0.013771227560937405, 0.013738586101680994, 0.012827939819544554, 0.012506814673542976, 0.013225091621279716, 0.013716090004891157, 0.012307456694543362, 0.012949197553098202, 0.013703522272408009, 0.01338651217520237, 0.012837916612625122, 0.011921913363039494, 0.011971455533057451, 0.01219424419105053, 0.012441202532500029, 0.012668180745095015, 0.01283785980194807, 0.011529234237968922, 0.012149638962000608, 0.011656942777335644, 0.012686646543443203, 0.012944367248564959, 0.012405379209667444, 0.012083296664059162, 0.011784548871219158, 0.011676082387566566, 0.011599231511354446, 0.011536183767020702]",0.05115291949854478,0.6543434935939039,0.06210708003187593,0.7085727065292848,0.10426052140339605,0.5424244040317849,0.15157173770889626,0.120135053737811,0.7266955486468861,44.43266319297254,cuda
MITDB,175_MITDB_id_6_Medical_tr_27274_1st_27374,GADF,cnn_autoencoder,128,83,83,64,150,0.001,"[0.0924411579966545, 0.08137431889772415, 0.07063161581754684, 0.06265464425086975, 0.052571313083171846, 0.04656671434640884, 0.0383891835808754, 0.03326751589775086, 0.028350381180644035, 0.0251207172870636, 0.022073251381516456, 0.019929950684309007, 0.017539966851472855, 0.016904385574162007, 0.014942113868892192, 0.015287830680608749, 0.013949994556605816, 0.013333212956786156, 0.011923126876354218, 0.011870420910418034, 0.011519820429384708, 0.010210390388965606, 0.01009320206940174, 0.0102105975151062, 0.009771389700472356, 0.009905047528445721, 0.00890626534819603, 0.0085231670178473, 0.008642700500786304, 0.00843089520931244, 0.008685522899031638, 0.008171669580042363, 0.00819065012037754, 0.00803638156503439, 0.007356474827975035, 0.00854645287618041, 0.006998626049607992, 0.007400540076196194, 0.008085819147527217, 0.007112066447734833, 0.006948742549866438, 0.006510206870734692, 0.0068635748699307445, 0.00627953177317977, 0.006672957725822925, 0.006760740745812654, 0.006167355738580227, 0.006148772966116667, 0.0061206363141536714, 0.006401246692985296, 0.005475804768502712, 0.005831573717296123, 0.006025291420519352, 0.00638751108199358, 0.0052983686327934265, 0.005269781313836574, 0.004908163938671351, 0.004982255306094885, 0.005509798135608435, 0.004890965018421412, 0.004567613359540701, 0.0042765973135828975, 0.004316241480410099, 0.004261238686740399, 0.004082795465365052, 0.004027679935097695, 0.003852823842316866, 0.004297141497954726, 0.0039476926904171705, 0.0037127880379557608, 0.004022303875535727, 0.003931279014796019, 0.003892980981618166, 0.0036919058300554754, 0.0038641403894871472, 0.003471842873841524, 0.003542583482339978, 0.0039548990316689014, 0.0035318129695951937, 0.0038441326934844254, 0.003396432287991047, 0.003402823721989989, 0.0034250864759087563, 0.003349026245996356, 0.0035335345659404994, 0.003648012410849333, 0.0034699552226811646, 0.0031775251496583222, 0.00330728804692626, 0.003363363957032561, 0.0031634241808205844, 0.003506027814000845, 0.0031134698539972304, 0.0030412816442549227, 0.0030695366207510234, 0.0030439895577728747, 0.0031103780027478935, 0.0028701082337647676, 0.0029788319021463393, 0.0027934580110013487, 0.0031056694686412813, 0.0029052972327917813, 0.0028186172246932985, 0.002956220740452409, 0.0029696617275476456, 0.002964624622836709, 0.0031012963037937878, 0.0030221154913306235, 0.0029382165055722, 0.0028231002856045962, 0.0026725945062935352, 0.002741307532414794, 0.0026197539176791907, 0.0024488341063261033, 0.0026292278897017242, 0.0025676976423710586, 0.0026470547541975974, 0.0025857465341687204, 0.0025142766535282135, 0.002438547043129802, 0.0023881085216999054, 0.0023251512087881566, 0.0022505415137857197, 0.002369681838899851, 0.0023001628927886487, 0.0024630820844322443, 0.0024414002895355225, 0.0025570669677108526, 0.0024618008639663456, 0.002373331878334284, 0.0021933715790510176, 0.0022356017027050255, 0.0022521648090332745, 0.0020762846106663346, 0.0023410480469465257, 0.002184029296040535, 0.002065330743789673, 0.00213454170152545, 0.0023190592415630817, 0.002022788324393332, 0.0022050417959690095, 0.0021800740621984007, 0.0021644070977345107, 0.002192779304459691, 0.001976184779778123, 0.002090742997825146, 0.002024712786078453, 0.002142404904589057, 0.0021318976301699876, 0.0020182876382023097]","[0.07463802024722099, 0.07299087196588516, 0.0664569791406393, 0.05843127518892288, 0.048731088638305664, 0.04189992509782314, 0.03280542604625225, 0.026549591682851315, 0.0246541453525424, 0.02323104627430439, 0.019523518159985542, 0.017493940889835358, 0.017058156430721283, 0.016012897714972496, 0.015601901337504387, 0.014262479729950428, 0.013639158103615046, 0.01158067723736167, 0.011210745200514793, 0.01074474398046732, 0.010025184135884047, 0.010047733318060637, 0.009542667772620916, 0.009521418251097202, 0.009354138746857643, 0.009063333738595247, 0.008650325704365969, 0.00854086084291339, 0.008431169902905822, 0.008449163753539324, 0.008462231140583754, 0.008069966221228242, 0.0079997219145298, 0.007901699747890234, 0.007944330107420683, 0.00767039880156517, 0.0074986121617257595, 0.007763694738969207, 0.007404728792607784, 0.007243049796670675, 0.007300584809854627, 0.0071306186728179455, 0.006987916771322489, 0.007139828754588962, 0.007175583858042955, 0.006835216656327248, 0.006478985771536827, 0.0063340687192976475, 0.006153722759336233, 0.006035527680069208, 0.006055641220882535, 0.00585393188521266, 0.005652585998177528, 0.0055872907396405935, 0.005344124976545572, 0.0056312542874366045, 0.00511362380348146, 0.005062569631263614, 0.005425667157396674, 0.004967412445694208, 0.004843645030632615, 0.004650017363019288, 0.004556296276859939, 0.004583002999424934, 0.004479712340980768, 0.004421186516992748, 0.004460803931578994, 0.004418503376655281, 0.004408808657899499, 0.004351078066974878, 0.0044151743641123176, 0.004194769775494933, 0.004217782057821751, 0.004125417675822973, 0.004178147064521909, 0.0040166643448174, 0.0039952913066372275, 0.004044110071845353, 0.003988486714661121, 0.003932952997274697, 0.003955694381147623, 0.003957530250772834, 0.003897774498909712, 0.0038557503139600158, 0.0037651497405022383, 0.003755224053747952, 0.00374891993124038, 0.0038894511526450515, 0.0037760145496577024, 0.003778999438509345, 0.0036594097036868334, 0.0035442401422187686, 0.0037902771728113294, 0.0036701110657304525, 0.003597229137085378, 0.003749468829482794, 0.0035685391630977392, 0.0033966967603191733, 0.0033602674957364798, 0.003360798000358045, 0.003484985325485468, 0.004098898032680154, 0.003541579353623092, 0.0035493127070367336, 0.0033352664904668927, 0.0035305770579725504, 0.0033884180011227727, 0.0034893363481387496, 0.003301279037259519, 0.003370039979927242, 0.0033552509266883135, 0.0031537741888314486, 0.0030705254757776856, 0.0031273982021957636, 0.003063902142457664, 0.0030434312066063285, 0.003050226136110723, 0.003052852349355817, 0.0031230896711349487, 0.0030260910280048847, 0.002941177226603031, 0.0028906979132443666, 0.0028595452895388007, 0.0029487861320376396, 0.002993343397974968, 0.0029119019163772464, 0.0029487565625458956, 0.003054657718166709, 0.0030580764869228005, 0.0029091084143146873, 0.002854029997251928, 0.002849570708349347, 0.0028577351476997137, 0.0028345659375190735, 0.0027824919670820236, 0.0027842188719660044, 0.0028008861700072885, 0.0027978908037766814, 0.0027353178011253476, 0.0027637977618724108, 0.0027413764037191868, 0.0027353621553629637, 0.0027479936834424734, 0.0027371663600206375, 0.0026881489902734756, 0.0027028019540011883, 0.0027087890775874257, 0.0026948510203510523, 0.0026843424420803785, 0.00269495602697134]",0.04998760631929876,0.6477288952931347,0.06136250000306571,0.7012448896994534,0.10125460082401208,0.4696109438707465,0.11183012657596395,0.08820246288430995,0.7249799576221276,49.07992865284905,cuda
