dataset,file_path,ts2i_transformation_pretty_name,model,latent_dim,window_length,stride,image_size,epochs,learning_rate,train_losses,val_losses,AUC_PR,AUC_ROC,VUS_PR,VUS_ROC,Standard_F1,PA_F1,Event_F1,R_F1,Affiliation_F,training_time_s,device
MITDB,170_MITDB_id_1_Medical_tr_17675_1st_17775,RN,cnn_autoencoder,128,42,42,64,150,0.001,"[0.20290005703767142, 0.18898162990808487, 0.1786651760339737, 0.16894966612259546, 0.16080709050099054, 0.153250681857268, 0.14649263272682825, 0.14038914442062378, 0.13467909644047418, 0.12926813960075378, 0.12437564382950465, 0.11969668045639992, 0.11519588654239972, 0.11117844904462497, 0.10704639678200085, 0.10319237907727559, 0.09961875900626183, 0.0958698404332002, 0.09249446168541908, 0.08898048102855682, 0.0855389175315698, 0.08244866877794266, 0.07902111485600471, 0.07596081246932347, 0.07298782716194789, 0.07016463081041972, 0.06727256750067075, 0.06453179443875949, 0.06212148877481619, 0.05935025525589784, 0.05699435497323672, 0.05489327323933443, 0.05261550657451153, 0.05049847811460495, 0.04827279411256313, 0.046189481392502785, 0.04422699722150961, 0.04235869273543358, 0.04070332832634449, 0.03888580327232679, 0.037641181300083794, 0.03575399269660314, 0.03437817034622034, 0.03278386717041334, 0.031407748038570084, 0.03006604313850403, 0.028773151338100433, 0.027724959266682465, 0.026676596452792484, 0.02563527536888917, 0.024594273418188095, 0.023685926261047523, 0.022877725462118786, 0.021867988010247547, 0.021011844587822754, 0.020507206209003925, 0.019723636098206043, 0.01889112964272499, 0.018393319100141525, 0.017320057998100918, 0.01664552465081215, 0.015928796492516994, 0.015446404926478863, 0.015014394496877989, 0.014420825832833847, 0.013978825261195501, 0.013513315158585707, 0.013193498055140177, 0.01286758342757821, 0.012752875220030546, 0.012549624623109898, 0.012272867063681284, 0.011833705628911654, 0.011370043735951185, 0.011115051495532194, 0.010761400995155176, 0.010394077748060226, 0.010084109225620827, 0.009934381116181612, 0.009880774344007174, 0.009752253691355387, 0.009738697204738855, 0.009730810299515724, 0.009333180884520212, 0.009043872666855654, 0.00906354251007239, 0.008828865519414345, 0.00866582135980328, 0.008204128282765547, 0.007951087085530162, 0.007697631139308214, 0.007547059174006184, 0.007268575796236594, 0.007090887675682704, 0.007029473315924406, 0.007074524027605851, 0.007076471345499158, 0.006989999286209543, 0.00711972809707125, 0.007015818574776252, 0.006745314768825968, 0.006751882843673229, 0.006762420060113072, 0.0064755266066640615, 0.0067855440235386295, 0.006556142820045352, 0.006348390209799011, 0.006086670871203144, 0.00588206419100364, 0.0057594929821789265, 0.005589789245277643, 0.005513167552029093, 0.005308585629488031, 0.005101828137412667, 0.00506708980537951, 0.004990312581260999, 0.004739910674591859, 0.004751604826500018, 0.00476253575955828, 0.004756360858057936, 0.004782322406147917, 0.004848957139377792, 0.00489564286544919, 0.004730030739059051, 0.004710981079066793, 0.00469487711476783, 0.004683848315229018, 0.004420700793464978, 0.004316686264549692, 0.00418219684312741, 0.004111448768526316, 0.004011867373871307, 0.003962821055514117, 0.004032161630069216, 0.00404527154751122, 0.004071507137268782, 0.004102632791424791, 0.004141776589676738, 0.004182799796884258, 0.004253906508286794, 0.003944704541936517, 0.0036575056922932467, 0.0035056071743989983, 0.003376364397505919, 0.003309261752292514, 0.0032853399558613696, 0.003242183825932443, 0.003233662146764497, 0.0031329684425145388, 0.003107662661932409]","[0.19920704513788223, 0.19661056995391846, 0.19133955240249634, 0.1827269271016121, 0.17135677486658096, 0.1591908261179924, 0.14855807274580002, 0.1398693397641182, 0.1323515772819519, 0.1261054053902626, 0.12078025937080383, 0.11610200628638268, 0.11178460344672203, 0.1077020950615406, 0.1038711741566658, 0.10029726102948189, 0.0966915413737297, 0.09298887476325035, 0.08925579488277435, 0.08569405972957611, 0.08265326544642448, 0.07923911139369011, 0.0764281190931797, 0.07359248772263527, 0.07056589424610138, 0.06752562150359154, 0.06474737823009491, 0.06228775903582573, 0.05958118475973606, 0.0572696290910244, 0.05444391816854477, 0.05266279727220535, 0.050204647704958916, 0.048149626702070236, 0.04640152305364609, 0.04425085708498955, 0.04232179373502731, 0.041189173236489296, 0.03910059854388237, 0.03734142892062664, 0.03583746775984764, 0.034580156207084656, 0.032965052872896194, 0.031489839777350426, 0.03024358581751585, 0.029185403138399124, 0.02810525894165039, 0.02707037702202797, 0.02587140165269375, 0.024924994446337223, 0.023813446052372456, 0.02307783719152212, 0.022217746824026108, 0.02127461228519678, 0.02072713989764452, 0.01983134914189577, 0.018893899396061897, 0.018387839198112488, 0.01768208760768175, 0.016793357208371162, 0.016210056841373444, 0.015723678283393383, 0.01521924789994955, 0.014869744889438152, 0.014388916548341513, 0.013955696951597929, 0.013555379118770361, 0.013285082764923573, 0.013002208434045315, 0.012604834046214819, 0.012290083803236485, 0.011826507281512022, 0.011464586947113276, 0.011077669449150562, 0.01082860678434372, 0.010430441237986088, 0.010327447671443224, 0.01009357487782836, 0.00985459890216589, 0.009787416085600853, 0.009947003331035376, 0.009725782554596663, 0.009624872356653214, 0.008974304888397455, 0.00869565224274993, 0.008783203549683094, 0.008602905552834272, 0.008207886014133692, 0.007946711499243975, 0.007745470851659775, 0.007583429804071784, 0.007346160477027297, 0.007196068996563554, 0.00704097468405962, 0.0070257713086903095, 0.007026623236015439, 0.007025992963463068, 0.0068997417110949755, 0.00704263593070209, 0.006661678198724985, 0.006596444407477975, 0.006632631411775947, 0.006522611249238253, 0.00651403097435832, 0.006654294207692146, 0.006282069254666567, 0.005999293411150575, 0.0058073855470865965, 0.005679707275703549, 0.005702590569853783, 0.005630553467199206, 0.005286377621814609, 0.0051627689972519875, 0.005108351120725274, 0.005163109628483653, 0.004888190189376473, 0.004795435816049576, 0.00472333119250834, 0.004834129009395838, 0.004875975660979748, 0.004872770514339209, 0.0048069164622575045, 0.004889060044661164, 0.004722345853224397, 0.004566494841128588, 0.004737227223813534, 0.004546896321699023, 0.004442691337317228, 0.004306884715333581, 0.004199975170195103, 0.00411996291950345, 0.004101553233340383, 0.004183929646387696, 0.004020364722236991, 0.004183205077424645, 0.004109929548576474, 0.004190606065094471, 0.004209792939946055, 0.004366914974525571, 0.004487406928092241, 0.0036584209883585572, 0.00352476816624403, 0.003373995190486312, 0.0033279452472925186, 0.003265002043917775, 0.0032531226752325892, 0.0031913903076201677, 0.0031397484708577394, 0.003139933221973479, 0.003087728633545339]",0.04769688834446893,0.5170336862287614,0.0600044507820957,0.559299313821807,0.09611728185985256,0.2728030303030303,0.09905338396629638,0.08528859022694671,0.6889980956317985,50.978785877814516,cuda
MITDB,170_MITDB_id_1_Medical_tr_17675_1st_17775,RN,resnet18_autoencoder_frozen,128,42,42,64,100,0.001,"[0.20383897423744202, 0.1890032266577085, 0.18309086561203003, 0.1765639508763949, 0.17106004307667413, 0.16664416591326395, 0.1636563961704572, 0.1615761642654737, 0.1600574180483818, 0.15884317457675934, 0.15811981757481894, 0.15718637903531393, 0.15616086622079214, 0.1545693203806877, 0.15248016268014908, 0.1486894612510999, 0.14396540075540543, 0.1380276307463646, 0.13117880622545877, 0.12290198852618535, 0.11469550306598346, 0.10748406499624252, 0.09823037435611089, 0.09061105673511823, 0.08396843324104945, 0.078192338347435, 0.07221617798010509, 0.06719972069064777, 0.06013989013930162, 0.05448424691955248, 0.04921084021528562, 0.04534089813629786, 0.04078155755996704, 0.03748203751941522, 0.03326199762523174, 0.029681344516575336, 0.02618467528373003, 0.023659936152398586, 0.021475816145539284, 0.019398170212904613, 0.017691472234825294, 0.01597978190208475, 0.015010450190554062, 0.01401400069395701, 0.013105358307560286, 0.0118028010862569, 0.011226210898409287, 0.01032473954061667, 0.009995128959417343, 0.00925422739237547, 0.009236880578100681, 0.008591382298618555, 0.007907768323396644, 0.00731553075214227, 0.006946179394920667, 0.006347622101505597, 0.006282982494061192, 0.005945735222970446, 0.005857707389319937, 0.005679265984023611, 0.005837410455569625, 0.005653931759297848, 0.005427253432571888, 0.005247916715840499, 0.0047779839951545, 0.004577355924993753, 0.004722774145193398, 0.004637252461786072, 0.00445716882434984, 0.004714062747855981, 0.004361558938398957, 0.004155486395272116, 0.004063303000293672, 0.004125634130711357, 0.004256636913244923, 0.004390244449799259, 0.004032155615277588, 0.004119340601998071, 0.0042137082588548464, 0.00397547062796851, 0.0037319648933286467, 0.0034397540148347616, 0.0034160837531089783, 0.0034049078822135925, 0.003236281491505603, 0.00305534809983025, 0.003116928390227258, 0.0030871575387815633, 0.002931612504956623, 0.002975082490593195, 0.002875759149901569, 0.0028237904965256653, 0.002738874638453126, 0.0025864340908204517, 0.0025465808187921843, 0.002700621106972297, 0.002742499733964602, 0.002613495453260839, 0.0026408080011606216, 0.003249350741195182]","[0.19258633255958557, 0.1891247257590294, 0.18546389788389206, 0.1807619035243988, 0.1744251325726509, 0.16927728056907654, 0.16489427536725998, 0.16228864341974258, 0.16085456311702728, 0.1590188592672348, 0.1583128497004509, 0.1580500602722168, 0.15788692235946655, 0.15682301670312881, 0.1559285819530487, 0.15329431742429733, 0.1492193043231964, 0.14259062707424164, 0.13390085846185684, 0.12438669800758362, 0.11417760327458382, 0.10583483800292015, 0.09691347181797028, 0.08882813900709152, 0.08174269646406174, 0.07532761245965958, 0.0699089765548706, 0.0636066310107708, 0.057402439415454865, 0.05168968252837658, 0.04686596617102623, 0.0426215436309576, 0.03849896043539047, 0.0346702691167593, 0.03149120882153511, 0.027946014888584614, 0.0249658040702343, 0.022147303447127342, 0.019869155250489712, 0.018397556617856026, 0.01632678136229515, 0.01485177967697382, 0.0137849235907197, 0.013203777838498354, 0.012060786131769419, 0.010919381864368916, 0.010177662130445242, 0.00951893487945199, 0.00875445269048214, 0.008557235822081566, 0.008335340302437544, 0.00747497589327395, 0.0070446140598505735, 0.00659047462977469, 0.006169629981741309, 0.0057758132461458445, 0.005593201378360391, 0.0052824984304606915, 0.005321455653756857, 0.005184839479625225, 0.005284889601171017, 0.0050309509970247746, 0.004837068030610681, 0.004570347955450416, 0.004281927598640323, 0.00412766495719552, 0.004291187738999724, 0.0040174463065341115, 0.003943670890294015, 0.004068806767463684, 0.004008784424513578, 0.0036829658783972263, 0.0036774688633158803, 0.0038359443424269557, 0.0038821136113256216, 0.0039171078242361546, 0.003750232863239944, 0.003638612572103739, 0.0037445486523211002, 0.0036115655675530434, 0.003347377758473158, 0.0030365539714694023, 0.0030320003861561418, 0.0029935536440461874, 0.003013459616340697, 0.0028305610176175833, 0.0027552673127502203, 0.002760441740974784, 0.0026439479552209377, 0.0026503540575504303, 0.0025465774815529585, 0.0024552379036322236, 0.0024570991517975926, 0.0023615022655576468, 0.002402660553343594, 0.00241372047457844, 0.0023953214986249804, 0.0023416895419359207, 0.002285101800225675, 0.0029280863236635923]",0.05075877460367932,0.509649410555802,0.06059648484713813,0.5596919362265906,0.09685015591103997,0.3578704353658727,0.13161232139334283,0.1634784048686995,0.696714858257897,46.174792831996456,cuda
MITDB,170_MITDB_id_1_Medical_tr_17675_1st_17775,RN,resnet18_autoencoder_progressive_unfreeze,128,42,42,64,150,0.001,"[0.1947252874573072, 0.17445767174164453, 0.16388591627279916, 0.1565373713771502, 0.14973231901725134, 0.14191953092813492, 0.13273800164461136, 0.12339731802543004, 0.11489741876721382, 0.10686368619402249, 0.09953707704941432, 0.09247478718558948, 0.086138350268205, 0.08006443579991658, 0.07530331363280614, 0.07008148605624835, 0.06556617716948192, 0.059761324897408485, 0.05445761792361736, 0.04912721862395605, 0.06356047093868256, 0.04941519411901633, 0.04266329606374105, 0.03797398445506891, 0.033621164659659065, 0.029805349186062813, 0.026619774289429188, 0.023788216523826122, 0.02167130137483279, 0.01952682187159856, 0.017589906541009743, 0.015902625086406868, 0.0149190379306674, 0.013094622797022263, 0.011954542715102434, 0.011185422850151857, 0.010113379918038845, 0.009319290518760681, 0.008608767918000618, 0.008071989131470522, 0.00743639119900763, 0.0070202762726694345, 0.006519457247729103, 0.006320600242664416, 0.005907133764897783, 0.005710425553843379, 0.005594140539566676, 0.005379019382720192, 0.0050991543879111605, 0.004682963403562705, 0.004408663604408503, 0.004434499113510053, 0.004365967819467187, 0.004233107281227906, 0.004243574958915512, 0.004211956247066458, 0.004148016528536876, 0.003923686182436843, 0.0038993573592354855, 0.003784458890246848, 0.003642466190891961, 0.003515830535131196, 0.003566098283044994, 0.0031592217662061253, 0.0030015496692309775, 0.0030130549178769193, 0.0029221016836042204, 0.002935420062082509, 0.0029977000473688045, 0.0031430366216227412, 0.002956744749099016, 0.0028261531066770353, 0.002776356724401315, 0.0027599619158233204, 0.0029344857903197408, 0.0029713302307451763, 0.002911592872502903, 0.002798324955316881, 0.0028880316531285644, 0.002558389795012772, 0.0021450796242182455, 0.001961092154184977, 0.0018630270884993176, 0.0018071103453015287, 0.0017993375658988953, 0.0017744364255728822, 0.0017225890963648756, 0.0017365273864318926, 0.0016506962516965966, 0.0015754784690216184, 0.0015725971121961873, 0.0015483362367376685, 0.0014930715163548787, 0.0015975019972150524, 0.0016451161354780197, 0.0017055850282001, 0.0016703220123114686, 0.0015815446968190372, 0.0016124943504109979, 0.0015033417148515582, 0.0013824433942014973, 0.001353771483991295, 0.0013207243755459785, 0.0012965576218751569, 0.001266589427056412, 0.0012568081923139591, 0.001253414472254614, 0.0012120693960847955, 0.0011825854890048504, 0.0011864248663187027, 0.0012076317604320745, 0.0011625804278689127, 0.0011257217071639996, 0.0011834643664769828]","[0.192986398935318, 0.18508482724428177, 0.1737421602010727, 0.1657790243625641, 0.16187531501054764, 0.1597776636481285, 0.15780147165060043, 0.15320540219545364, 0.1430508941411972, 0.12547753378748894, 0.10690194368362427, 0.09321875125169754, 0.08392458781599998, 0.07650690898299217, 0.07161346077919006, 0.06613041460514069, 0.06092529557645321, 0.055687353014945984, 0.0506292749196291, 0.04596460424363613, 0.05591324716806412, 0.044108184054493904, 0.038807185366749763, 0.034530311822891235, 0.030905823223292828, 0.02766228187829256, 0.024905812926590443, 0.02220670599490404, 0.020252143032848835, 0.01843609567731619, 0.01669105514883995, 0.014994503930211067, 0.0135457762517035, 0.012070894706994295, 0.011006215121597052, 0.0099608413875103, 0.009479819796979427, 0.008595445193350315, 0.007914868649095297, 0.0073764880653470755, 0.006853725295513868, 0.00642185821197927, 0.0059947362169623375, 0.00583936832845211, 0.005490146344527602, 0.00508980848826468, 0.005106138298287988, 0.004965935368090868, 0.004512154031544924, 0.004332785261794925, 0.004039720515720546, 0.004094056086614728, 0.004163440084084868, 0.004070542519912124, 0.00399804615881294, 0.004073696210980415, 0.003676871187053621, 0.0036182996118441224, 0.0037895520217716694, 0.0035578979877755046, 0.003316328045912087, 0.0034482984337955713, 0.0031524052610620856, 0.0028859369922429323, 0.002824692055583, 0.0027725010877475142, 0.002676071599125862, 0.002728169900365174, 0.002936199540272355, 0.0029634262900799513, 0.0026862977538257837, 0.0025976583128795028, 0.002582739689387381, 0.002736332709901035, 0.0026205325266346335, 0.002811856335029006, 0.0027009622426703572, 0.002780250390060246, 0.002855146420188248, 0.0021024601301178336, 0.001985333568882197, 0.0016693892539478838, 0.0016090496210381389, 0.001606225618161261, 0.0015888598863966763, 0.001523676561191678, 0.0015605621156282723, 0.0015186344971880317, 0.0014852596214041114, 0.001424990827217698, 0.001414093072526157, 0.0013892067945562303, 0.001345983415376395, 0.0013590072630904615, 0.0014641620800830424, 0.001504812971688807, 0.0014688550727441907, 0.0013745647156611085, 0.0014025903074070811, 0.001219440600834787, 0.0012115577701479197, 0.0011757455067709088, 0.0011229755473323166, 0.0011069352622143924, 0.0011251414543949068, 0.0011105916928499937, 0.001090103352908045, 0.0010641616536304355, 0.001048901176545769, 0.0010396585566923022, 0.0010546622797846794, 0.0010362811153754592, 0.001031577674439177, 0.0010222334240097553]",0.06648720916922476,0.53683249159274,0.07709861915205612,0.5957063512422747,0.11626416464551563,0.47127683961182854,0.1947879018451584,0.11780337393072303,0.6889980956317985,53.79860554984771,cuda
MITDB,170_MITDB_id_1_Medical_tr_17675_1st_17775,RN,resnet18_autoencoder_differential_lr,128,42,42,64,100,0.001,"[0.20617621640364328, 0.19332895427942276, 0.18493668486674628, 0.1774360512693723, 0.17078775415817896, 0.16648834943771362, 0.16312159597873688, 0.16066957513491312, 0.15893801798423132, 0.15748864909013113, 0.155746228992939, 0.1536960850159327, 0.15097891042629877, 0.14836319784323374, 0.14606252312660217, 0.14077446361382803, 0.13383981585502625, 0.12533769135673842, 0.11616767322023709, 0.10680530965328217, 0.09740941599011421, 0.0876346118748188, 0.07805001984039943, 0.07053117950757344, 0.06410880138476689, 0.05654072451094786, 0.05068011147280534, 0.04516437339286009, 0.04010902841885885, 0.035471536219120026, 0.03223349712789059, 0.029175542294979095, 0.025526448152959347, 0.023975760365525883, 0.02202086430042982, 0.019123542743424576, 0.01747475874920686, 0.015480948612093925, 0.014197676597783962, 0.012694882539411386, 0.012038615997880697, 0.010972784366458654, 0.010309480596333742, 0.009368606222172579, 0.008871044497936964, 0.00859269235904018, 0.007839858376731476, 0.007773044441516201, 0.007614166243001819, 0.007208335756634672, 0.006973182782530785, 0.006644232043375571, 0.005984685927008589, 0.005621331123014291, 0.005197444232180715, 0.005127973000829418, 0.004941610231374701, 0.0047457976421962185, 0.0049881065885225935, 0.004820338838423292, 0.004531054990366101, 0.004270575979414086, 0.004120669211260974, 0.004300560336560011, 0.0040252840068812175, 0.003985513622562091, 0.003946776424224178, 0.004186557101396223, 0.004778009218474229, 0.005079821528246005, 0.00544986183134218, 0.00633028654071192, 0.006051301412905256, 0.004981666182478269, 0.004239463324969013, 0.003794868631909291, 0.0032235638548930487, 0.002824095698694388, 0.002841538943660756, 0.002741228051794072, 0.0027638934552669525, 0.0029523082387944064, 0.002776229327234129, 0.0027976306155323982, 0.0027695465056846538, 0.0026673567093287907, 0.0025239402893930674, 0.0024957009591162205, 0.002401176296795408, 0.0022264649936308465, 0.002836068238442143, 0.0029101104785998664, 0.002739427494816482, 0.0027173210401088, 0.002769651783940693, 0.0026381273831551275, 0.0024958303353438773, 0.0021533052592227855, 0.0020604364884396396, 0.002065853176948925]","[0.19824565947055817, 0.19479455798864365, 0.18762201070785522, 0.17827937752008438, 0.17066581547260284, 0.16613996773958206, 0.16329745203256607, 0.1611991971731186, 0.15896978974342346, 0.15767192840576172, 0.15608428418636322, 0.15430493652820587, 0.15205055475234985, 0.150148443877697, 0.14643853157758713, 0.14218608289957047, 0.13723134994506836, 0.12765128165483475, 0.11567597463726997, 0.10625910386443138, 0.09439699724316597, 0.08343741297721863, 0.0735066644847393, 0.06559484824538231, 0.05813408084213734, 0.05147109180688858, 0.04622510075569153, 0.04096866585314274, 0.036251991987228394, 0.03257202357053757, 0.029510730877518654, 0.02679862082004547, 0.02368412259966135, 0.02176164649426937, 0.019478022120893, 0.017522338777780533, 0.01566096255555749, 0.014062574598938227, 0.012750597205013037, 0.011719525326043367, 0.010954779107123613, 0.010152360890060663, 0.009455248713493347, 0.008505511563271284, 0.00817952724173665, 0.00753827067092061, 0.007233584066852927, 0.007217632839456201, 0.006757122231647372, 0.006521791452541947, 0.0063262993935495615, 0.005792103940621018, 0.005404271185398102, 0.005183741683140397, 0.004808904370293021, 0.004561936249956489, 0.004507084377110004, 0.004200951894745231, 0.004458782495930791, 0.004215898923575878, 0.004025151371024549, 0.0038416354218497872, 0.0037102281348779798, 0.003721932298503816, 0.003948756959289312, 0.0035666855983436108, 0.0035536716459318995, 0.0037576077738776803, 0.004420312354341149, 0.004484167089685798, 0.0054899598471820354, 0.006694326177239418, 0.005147532792761922, 0.004027907853014767, 0.003440226661041379, 0.003088464611209929, 0.0027412232011556625, 0.0024989473167806864, 0.00238450663164258, 0.0023204335011541843, 0.0023270919919013977, 0.0024046620819717646, 0.0025354037061333656, 0.0023359458427876234, 0.0022458211751654744, 0.0023404122330248356, 0.0021306886337697506, 0.0020454389741644263, 0.00204581196885556, 0.0019335697870701551, 0.002039841143414378, 0.0022644706768915057, 0.0022727387258782983, 0.0022848754888400435, 0.0021492644445970654, 0.002200741204433143, 0.00190160667989403, 0.0018104260670952499, 0.0017344748484902084, 0.0016586356796324253]",0.04863832069753869,0.5194979515511583,0.060956036929753585,0.5714370089900523,0.0964276291439963,0.3714829484080037,0.09783259562500765,0.08926810862037973,0.6930687562872087,49.66208822908811,cuda
MITDB,170_MITDB_id_1_Medical_tr_17675_1st_17775,RN,pvt_autoencoder_frozen,128,42,42,64,100,0.001,"[0.19659546514352164, 0.18032309412956238, 0.1751392980416616, 0.171280470987161, 0.16795327762762705, 0.1651665742198626, 0.1631302461028099, 0.16160118579864502, 0.16056039184331894, 0.15978112320105234, 0.15924478073914847, 0.15865778426329294, 0.1582548270622889, 0.15783663590749106, 0.15751116226116815, 0.15715665618578592, 0.15670290092627207, 0.15635210275650024, 0.15591505418221155, 0.155562753478686, 0.15471320847670236, 0.1537581036488215, 0.15214903652668, 0.14960643649101257, 0.1462474837899208, 0.14177358647187552, 0.1358893314997355, 0.12801706542571387, 0.11902082835634549, 0.10997364794214566, 0.10121648386120796, 0.09165443728367488, 0.08344859008987744, 0.07437600195407867, 0.0668751634657383, 0.06054627522826195, 0.054198618357380234, 0.0487874069561561, 0.04312698605159918, 0.03866024129092693, 0.034454822850724064, 0.031095220396916073, 0.027312577702105045, 0.024838733797272045, 0.02282008808106184, 0.02122803529103597, 0.019031578364471596, 0.01825806436439355, 0.01664620963856578, 0.015085843702157339, 0.013767720200121403, 0.01238371633614103, 0.011344242841005325, 0.010792400843153397, 0.009712578107913336, 0.009152542489270369, 0.008689395617693663, 0.00829029455780983, 0.007866117792824904, 0.007573775170991818, 0.007292314199730754, 0.00704941355312864, 0.007529386707271139, 0.00685580486121277, 0.006642226052160065, 0.0063944547437131405, 0.0061929769193132716, 0.00588408182375133, 0.005689712706953287, 0.005687078693881631, 0.005459389959772428, 0.0052520698712517815, 0.0052898490491012735, 0.005139136221259832, 0.004896470035115878, 0.005038722728689511, 0.004824258231868346, 0.004657335191344221, 0.004472832661122084, 0.004404150027160843, 0.004345384969686468, 0.004264296032488346, 0.004052726280254622, 0.004166732037750383, 0.0038083880596483746, 0.004048354225233197, 0.004092038492672145, 0.004335533517102401, 0.004449092162152131, 0.0038726949132978916, 0.003757730902483066, 0.0037179663001249232, 0.0034622614039108157, 0.0034738618802900114, 0.0034088146251936755, 0.0034411277544374266, 0.003415606760730346, 0.003333723987452686, 0.0032542480621486902, 0.0032627369121958814]","[0.18389657139778137, 0.1817762479186058, 0.17702390253543854, 0.17253120988607407, 0.1689920276403427, 0.16592290252447128, 0.16324521601200104, 0.16157647222280502, 0.16043198853731155, 0.1596110835671425, 0.15905924886465073, 0.15869087725877762, 0.15833905339241028, 0.1580473855137825, 0.157795250415802, 0.15747378021478653, 0.1572565734386444, 0.15712204575538635, 0.15705280005931854, 0.1570059061050415, 0.15675777196884155, 0.15623316168785095, 0.1554470956325531, 0.1539306938648224, 0.15118751674890518, 0.14631327986717224, 0.14048471301794052, 0.13278797268867493, 0.12442190200090408, 0.11366088315844536, 0.10349446907639503, 0.09165084734559059, 0.08211184665560722, 0.07285531237721443, 0.06637755036354065, 0.059980932623147964, 0.05260327644646168, 0.04782228544354439, 0.042482202872633934, 0.03834926337003708, 0.0339569840580225, 0.03001330140978098, 0.026867177337408066, 0.025057461112737656, 0.022450750693678856, 0.02060608472675085, 0.019289604388177395, 0.017345597967505455, 0.01583555666729808, 0.014853209257125854, 0.013321577571332455, 0.012017937377095222, 0.011151804123073816, 0.0102645019069314, 0.009746477007865906, 0.009090074803680182, 0.008351598400622606, 0.008041169494390488, 0.007858768571168184, 0.007344590965658426, 0.007146726595237851, 0.007103949785232544, 0.007063750643283129, 0.0065058148466050625, 0.006403059000149369, 0.006229999708011746, 0.005898469360545278, 0.005598238669335842, 0.0055888991337269545, 0.005436858162283897, 0.0051536166574805975, 0.005333145381882787, 0.00492676324211061, 0.004766531055793166, 0.004831496626138687, 0.004696565447375178, 0.004659589845687151, 0.004457758506760001, 0.00431209453381598, 0.004269394325092435, 0.003996408544480801, 0.003942224546335638, 0.00406381580978632, 0.0037445006892085075, 0.0037802987499162555, 0.003923314856365323, 0.004211723804473877, 0.004198182839900255, 0.003915708395652473, 0.003667485201731324, 0.003585556405596435, 0.0034671130124479532, 0.003179952153004706, 0.0033241845667362213, 0.0032557945232838392, 0.0032631891081109643, 0.0033147509675472975, 0.003232868039049208, 0.0031329013872891665, 0.0031058050226420164]",0.04989254884723325,0.5213313581352433,0.0638983026817051,0.5767379101358486,0.09717645776318458,0.3292145607183065,0.09886521115160583,0.18355277522945365,0.6889682240084021,51.51208067708649,cuda
MITDB,170_MITDB_id_1_Medical_tr_17675_1st_17775,RN,pvt_autoencoder_progressive_unfreeze,128,42,42,64,150,0.001,"[0.19813111672798792, 0.1813275342186292, 0.1725951706369718, 0.16661407301823297, 0.16282101968924204, 0.1605850656827291, 0.1590783769885699, 0.15802623083194098, 0.15719981988271078, 0.15663452943166098, 0.1559493045012156, 0.15537895013888678, 0.15435729920864105, 0.1528158336877823, 0.15048412481943765, 0.1464534675081571, 0.14069823920726776, 0.1331733614206314, 0.12346122538050015, 0.11397319535414378, 0.15633382151524225, 0.15709498027960458, 0.15406018247207007, 0.1512813592950503, 0.14598941057920456, 0.13606524964173636, 0.12481771409511566, 0.11239724978804588, 0.10043255612254143, 0.08891422177354495, 0.07915119578440984, 0.0700799897313118, 0.061594534665346146, 0.05489818441371123, 0.04843962130447229, 0.04215283878147602, 0.037601169819633164, 0.03246184221158425, 0.02791939831028382, 0.02465000996987025, 0.021398041397333145, 0.018827777666350205, 0.016994131729006767, 0.015843127854168415, 0.014655405500282844, 0.01332210935652256, 0.011682177583376566, 0.010728509010126194, 0.010081635788083076, 0.009392342374970516, 0.009002367034554482, 0.008199782265971104, 0.007751021534204483, 0.007116781314834952, 0.006864004613210757, 0.006810218328610063, 0.006423881044611335, 0.006208808161318302, 0.005691665535171826, 0.0055991047993302345, 0.005211075845484932, 0.004870819781596462, 0.00465891898299257, 0.004567193876331051, 0.00435635323325793, 0.004438533758123715, 0.004231693455949426, 0.004150035053802033, 0.004044760639468829, 0.0039571441399554414, 0.003772426978684962, 0.004005638455661635, 0.0038617198976377645, 0.0036839934764429927, 0.00346662022639066, 0.003490460648511847, 0.0033332861106221876, 0.0033026764479776225, 0.0033237516957645616, 0.003340314569262167, 0.0032066917046904564, 0.0032515237107872963, 0.003134848860402902, 0.0031058728927746415, 0.00296610698569566, 0.003001366935980817, 0.0029092790403713784, 0.0029635813164835176, 0.002948858969223996, 0.002884354597578446, 0.002947360936862727, 0.002969444845803082, 0.0029907311933736005, 0.002964077517390251, 0.0028563162001470723, 0.0027540588829045496, 0.002839806256815791, 0.0027742281866570315, 0.0030121158342808485, 0.0027252710424363613, 0.0027031780142957964, 0.0024791040923446417, 0.0023442179275055728, 0.002370424607458214, 0.0023425239293525615, 0.002311531725960473, 0.002258507418446243, 0.002313838883613547, 0.002371420074875156, 0.0023537461335460344, 0.0023404869328563413, 0.0024048120249062777, 0.0022836407103265324, 0.0022262653025488057, 0.0022461414725209274, 0.0023630614935730896, 0.0021861380664631724, 0.002210980785700182, 0.0021395483442271748, 0.0021945896248022714, 0.001953784842044115, 0.0016685600858181715, 0.001542961011485507, 0.001469952966241787, 0.001434002013411373, 0.0014851491626662512, 0.0015833990182727575, 0.0015156767913140357, 0.0014753043457555275, 0.0014560588751919568, 0.0014238690297740202, 0.0014269127083631854, 0.0013961636383707325, 0.0013632831978611648]","[0.19117332249879837, 0.18711907416582108, 0.17809080332517624, 0.16909165680408478, 0.16343703866004944, 0.1605190634727478, 0.1588575392961502, 0.1578834429383278, 0.15719139575958252, 0.15670505166053772, 0.15646878629922867, 0.15635640919208527, 0.15625930577516556, 0.15625743567943573, 0.1556372493505478, 0.15379039198160172, 0.15034079551696777, 0.1429542899131775, 0.1316528543829918, 0.11896738409996033, 0.16789738088846207, 0.15678701549768448, 0.15387286990880966, 0.15255235135555267, 0.14833462238311768, 0.1412171646952629, 0.13059240579605103, 0.11324505880475044, 0.10015028715133667, 0.08901204913854599, 0.07923378422856331, 0.07010844722390175, 0.061956992372870445, 0.05444662272930145, 0.04757986031472683, 0.041699016466736794, 0.03594055771827698, 0.03095132764428854, 0.026960531249642372, 0.02349361591041088, 0.020562629215419292, 0.018214975483715534, 0.016824038699269295, 0.015199965797364712, 0.01412194361910224, 0.012058761436492205, 0.011258374899625778, 0.010145485866814852, 0.009583066683262587, 0.00910450192168355, 0.008287104777991772, 0.007763368310406804, 0.00714347418397665, 0.00690733571536839, 0.006606880342587829, 0.006182133220136166, 0.006108059082180262, 0.005671394057571888, 0.005326597020030022, 0.00522058573551476, 0.004792935214936733, 0.004496979294344783, 0.004377465229481459, 0.004269743571057916, 0.004329579649493098, 0.004127065767534077, 0.004221956944093108, 0.0038861255161464214, 0.004011550219729543, 0.003822093363851309, 0.0038512435276061296, 0.003863423247821629, 0.003571725683286786, 0.0033282198710367084, 0.0033520173747092485, 0.003231127862818539, 0.003170823329128325, 0.0030817200895398855, 0.0031413777032867074, 0.0030635721050202847, 0.0033403689740225673, 0.0030211901757866144, 0.0030395231442525983, 0.0029175133677199483, 0.0028269116301089525, 0.0027947089402005076, 0.0028546551475301385, 0.002870432334020734, 0.0028126946417614818, 0.0027712532319128513, 0.002853351179510355, 0.002817758359014988, 0.0029605712043121457, 0.002809717203490436, 0.002557836938649416, 0.0026192619698122144, 0.002565832925029099, 0.002633380237966776, 0.0026388715486973524, 0.002675489755347371, 0.0025338928680866957, 0.0022740642307326198, 0.0022767730988562107, 0.0022239378886297345, 0.0022770260693505406, 0.002172044012695551, 0.0021926924819126725, 0.0021943210158497095, 0.002159473951905966, 0.00228989589959383, 0.002289547468535602, 0.0022624805569648743, 0.002216211869381368, 0.002044286869931966, 0.0023944071726873517, 0.0020773938158527017, 0.002134375157766044, 0.002096413809340447, 0.0020798785844817758, 0.0020630955696105957, 0.001641330833081156, 0.001498775847721845, 0.001401058747433126, 0.0013550351141020656, 0.0013333926326595247, 0.0013664321159012616, 0.0013813373516313732, 0.0013798705185763538, 0.0013681624550372362, 0.0013431366533041, 0.0013065712992101908, 0.001266922801733017, 0.0012850106577388942, 0.001276569440960884]",0.0505230000814534,0.5084143485790354,0.06171336337131963,0.5569131263793479,0.09569904762373993,0.38439913753104615,0.11979747969583317,0.1490709035331251,0.6890098295950837,83.02450244082138,cuda
MITDB,170_MITDB_id_1_Medical_tr_17675_1st_17775,RN,pvt_autoencoder_differential_lr,128,42,42,64,100,0.001,"[0.20443101723988852, 0.1857619509100914, 0.1765210504333178, 0.17021209249893823, 0.1658667450149854, 0.1628333901365598, 0.16070051491260529, 0.15908328692118326, 0.1580817699432373, 0.15718826899925867, 0.15647220611572266, 0.15581730753183365, 0.15535597006479898, 0.15456920862197876, 0.1538606360554695, 0.15330458929141363, 0.1526425282160441, 0.15177655468384424, 0.15077822655439377, 0.1499472831686338, 0.1485333318511645, 0.14770299444595972, 0.14617813130219778, 0.1448824554681778, 0.1429709568619728, 0.14159459620714188, 0.13913043091694513, 0.13519160201152167, 0.13086784382661185, 0.12750240912040076, 0.12177431707580884, 0.11723827694853146, 0.11111801614363988, 0.10463378578424454, 0.10065317402283351, 0.09299023821949959, 0.08724195758501689, 0.08022945001721382, 0.07335074121753375, 0.06687994052966435, 0.059516940265893936, 0.054457912842432656, 0.049652977536122, 0.04554372280836105, 0.040422242134809494, 0.0361318855235974, 0.03164335464437803, 0.028729511114458244, 0.025802924608190853, 0.022942787036299706, 0.021134011447429657, 0.019830726087093353, 0.019228346645832062, 0.018549795262515545, 0.015887978486716747, 0.014215317399551472, 0.012828051267812649, 0.012144035970171293, 0.01076432317495346, 0.009965180574605862, 0.009366982461263737, 0.008882729491839806, 0.008506157280256351, 0.008789461959774295, 0.008098428137600422, 0.007796819942692916, 0.008767956014101705, 0.009059851833929619, 0.007859377190470695, 0.007295991604526837, 0.006717267989491423, 0.006324915603424112, 0.006273528250555198, 0.006330403499305248, 0.0059913708828389645, 0.005841550494854649, 0.005518232627461354, 0.005180850314597289, 0.005003252221892278, 0.004797181347385049, 0.005089343835910161, 0.0047809958923608065, 0.004557919533302386, 0.004241682783079644, 0.004369411229466398, 0.004522171958039205, 0.004331264994107187, 0.004044287488795817, 0.0040333111537620425, 0.003813047466489176, 0.004103537066839635, 0.003955765937765439, 0.004007140329728524, 0.004006665471630792, 0.0039701582087824745, 0.003938336662637691, 0.0035220005083829165, 0.0031022474092120924, 0.0029736373495931425, 0.00283358886372298]","[0.19446060061454773, 0.18827271461486816, 0.18011269718408585, 0.17249177396297455, 0.16660666465759277, 0.1627163514494896, 0.1603994145989418, 0.1589001566171646, 0.15794726461172104, 0.1577799767255783, 0.15679235011339188, 0.15593413263559341, 0.15604867041110992, 0.1549738571047783, 0.15504048019647598, 0.15387646853923798, 0.15282440185546875, 0.15290410071611404, 0.15160458534955978, 0.15062537044286728, 0.14992878586053848, 0.14938995242118835, 0.14804399758577347, 0.14654048532247543, 0.14559805393218994, 0.14432062208652496, 0.14255274832248688, 0.13861743360757828, 0.13560768961906433, 0.13269732147455215, 0.12851329147815704, 0.12255293130874634, 0.1181679405272007, 0.11229155212640762, 0.10530313104391098, 0.10142527148127556, 0.09233294054865837, 0.08476151898503304, 0.07818223536014557, 0.0713340975344181, 0.06400230154395103, 0.058347513899207115, 0.053744303062558174, 0.046998729929327965, 0.041619593277573586, 0.036857400089502335, 0.033165521919727325, 0.029934987425804138, 0.026930184103548527, 0.023559972643852234, 0.021478028036653996, 0.01918226294219494, 0.019683972001075745, 0.01780731789767742, 0.015525806229561567, 0.014218474738299847, 0.013057859148830175, 0.011693296954035759, 0.010993493255227804, 0.010133807547390461, 0.00941647868603468, 0.009090324398130178, 0.008773696143180132, 0.008206546306610107, 0.008029352873563766, 0.007698921719565988, 0.008783920668065548, 0.008058204781264067, 0.007420721463859081, 0.006970494752749801, 0.006363280117511749, 0.00615670857951045, 0.005953280255198479, 0.006223501404747367, 0.0059506280813366175, 0.005461648805066943, 0.005253338487818837, 0.004951060051098466, 0.004766892408952117, 0.004588381154462695, 0.004691532347351313, 0.004581359215080738, 0.004474181681871414, 0.004212680039927363, 0.004250452388077974, 0.004296982195228338, 0.004167594248428941, 0.003951641614548862, 0.00382641504984349, 0.0036648092791438103, 0.004051151918247342, 0.0038157684030011296, 0.0038601418491452932, 0.003767647431232035, 0.003837264608591795, 0.0037559126503765583, 0.003107186872512102, 0.002968906657770276, 0.0027871172642335296, 0.00270018691662699]",0.047615654022755305,0.4824830348629565,0.057884559547518234,0.5308117123966621,0.09382526730667337,0.3121168985852482,0.10757136946628011,0.12176910307503201,0.6889571110995962,66.85724343988113,cuda
MITDB,170_MITDB_id_1_Medical_tr_17675_1st_17775,LP,cnn_autoencoder,128,42,42,64,150,0.001,"[0.2637827495733897, 0.23710613697767258, 0.21519524604082108, 0.19477725277344385, 0.17574610064427057, 0.15797925492127737, 0.14165837317705154, 0.1270680452386538, 0.11409419526656468, 0.10272248461842537, 0.09284866104523341, 0.08424512669444084, 0.07679392397403717, 0.07019220665097237, 0.06447372771799564, 0.05957106314599514, 0.05530583175520102, 0.0513401385396719, 0.04789390477041403, 0.044975503658254944, 0.042359933257102966, 0.03986815301080545, 0.0375869075457255, 0.03570684169729551, 0.03386344760656357, 0.032268641206125416, 0.03094545068840186, 0.029791304220755894, 0.028489498731990654, 0.02726349886506796, 0.026294026834269364, 0.025261015631258488, 0.024426004228492577, 0.023444138777752716, 0.022859544803698856, 0.022018051085372765, 0.02144518991311391, 0.020740382683773834, 0.020304378122091293, 0.019754942506551743, 0.018909663272400696, 0.01848582085222006, 0.018311997565130394, 0.018049658897022407, 0.017201902344822884, 0.017015385441482067, 0.016481296469767887, 0.01615860468397538, 0.01591493220378955, 0.015690972562879324, 0.015309202640006939, 0.014920024666935205, 0.014611358288675547, 0.014214339821288982, 0.014114643757541975, 0.013888670597225428, 0.013525994028896093, 0.01349239811922113, 0.01321705182393392, 0.013004546829809746, 0.012812853790819645, 0.012545392848551273, 0.012405123561620712, 0.012225651803116003, 0.01204711509247621, 0.012016413112481436, 0.011917137540876865, 0.011452751389394203, 0.011515673870841662, 0.01138228022803863, 0.011324914637953043, 0.011143340729176998, 0.011008053552359343, 0.01067927231391271, 0.010981357345978418, 0.01052938417221109, 0.010657623099784056, 0.010433794930577278, 0.010232459908972183, 0.010292774842431148, 0.009982354938983917, 0.0099715202425917, 0.010035412230839333, 0.009698021070410809, 0.009588361096878847, 0.009439997219791016, 0.009504076559096575, 0.009326332869629065, 0.009129698077837626, 0.00903373925636212, 0.009139022634675106, 0.00886167073622346, 0.008818520233035088, 0.00869242986664176, 0.008728943299502134, 0.008656232617795467, 0.008563290815800428, 0.008412429597228765, 0.008423010042558113, 0.008197183798377713, 0.008324546196187535, 0.008229815711577734, 0.008178386293972531, 0.007865009053299824, 0.007970944823076328, 0.008136819815263152, 0.007772121733675401, 0.007565684228514631, 0.007502421736717224, 0.007568928878754377, 0.0074427512008696795, 0.00731274695135653, 0.007323107914999127, 0.007137543832262357, 0.007183020003139973, 0.007202978013083339, 0.007044226552049319, 0.0070002512851109104, 0.006765734637156129, 0.006937074242159724, 0.0069095944830526905, 0.006668251395846407, 0.006946078191200892, 0.00666469126008451, 0.006462259994198878, 0.006619724910706282, 0.006597936696683367, 0.006273938265318672, 0.0061918089631944895, 0.006319880640755097, 0.006382348015904427, 0.006275392913570006, 0.006278610710675518, 0.0062053988222032785, 0.006050986625875036, 0.00600161620726188, 0.0060177575796842575, 0.005883502075448632, 0.0060542192465315265, 0.005834245588630438, 0.006104711210355163, 0.00595363974571228, 0.005658123254155119, 0.0057617911758522196, 0.0056305741891264915, 0.005716119194403291, 0.005670212131614487, 0.005688592636336883, 0.005576918910567959, 0.005610530497506261]","[0.25846239924430847, 0.2495560571551323, 0.23157817125320435, 0.2093576043844223, 0.18583383411169052, 0.16297408193349838, 0.14228396117687225, 0.12441304326057434, 0.109812892973423, 0.09778458997607231, 0.08827448636293411, 0.07992501929402351, 0.07286316156387329, 0.06683410704135895, 0.06176291033625603, 0.05749526061117649, 0.05352750979363918, 0.04956735111773014, 0.04671330191195011, 0.04345292970538139, 0.04165271855890751, 0.0388481505215168, 0.03737633861601353, 0.03522665053606033, 0.03437701612710953, 0.033260295167565346, 0.03202822618186474, 0.03127641696482897, 0.029891998507082462, 0.028752791695296764, 0.027711971662938595, 0.026546262204647064, 0.026091035455465317, 0.0255783936008811, 0.024652854539453983, 0.02332154754549265, 0.022716829553246498, 0.022032094188034534, 0.021536667831242085, 0.0205884063616395, 0.020213013514876366, 0.0206197677180171, 0.01926303841173649, 0.020075722597539425, 0.01893186755478382, 0.018726719543337822, 0.018171532079577446, 0.01730771642178297, 0.016676617320626974, 0.01652266876772046, 0.01607608236372471, 0.015989464707672596, 0.01568089984357357, 0.015634782146662474, 0.015571048017591238, 0.015412096865475178, 0.015097800642251968, 0.01499274279922247, 0.014858667273074389, 0.014751754235476255, 0.014471393078565598, 0.014168201014399529, 0.014351053163409233, 0.013912262860685587, 0.014026441145688295, 0.013789639808237553, 0.013869896996766329, 0.013466771226376295, 0.013559819664806128, 0.013242513407021761, 0.013226824346929789, 0.013293899595737457, 0.013188626151531935, 0.01301979273557663, 0.012967441696673632, 0.012664060108363628, 0.012713438365608454, 0.0126735158264637, 0.012474131770431995, 0.0125599498860538, 0.012394601944833994, 0.012331494595855474, 0.012277461122721434, 0.012160740792751312, 0.012112456373870373, 0.012035796884447336, 0.011970573104918003, 0.011835784185677767, 0.011728369630873203, 0.011784967966377735, 0.011659991927444935, 0.011570837814360857, 0.011664323043078184, 0.011463611386716366, 0.011450340040028095, 0.011394672095775604, 0.011361852288246155, 0.011322526726871729, 0.011293533723801374, 0.011141888331621885, 0.011143088806420565, 0.011146294418722391, 0.011056183837354183, 0.010921725537627935, 0.010907993651926517, 0.010999874211847782, 0.010908863972872496, 0.010881058406084776, 0.01085264002904296, 0.01067042862996459, 0.010708266403526068, 0.010771948378533125, 0.010629959404468536, 0.01058026123791933, 0.010499361902475357, 0.010589573066681623, 0.010407180525362492, 0.010436507873237133, 0.01029254449531436, 0.010314160026609898, 0.010357360821217299, 0.01015674090012908, 0.010375662706792355, 0.010178738739341497, 0.010282771661877632, 0.010197773575782776, 0.010222446639090776, 0.01013539219275117, 0.010129712987691164, 0.010140787344425917, 0.010069579817354679, 0.010018679313361645, 0.010001195594668388, 0.010059709195047617, 0.009950322564691305, 0.00994360027834773, 0.009990376885980368, 0.01001854008063674, 0.010043221525847912, 0.009988786652684212, 0.009960719384253025, 0.009889993816614151, 0.009920143987983465, 0.009884292725473642, 0.009826390538364649, 0.009859952609986067, 0.009855466429144144, 0.009890234563499689, 0.009793647099286318, 0.00983596546575427]",0.054718196512081346,0.5818039163687335,0.0705007016597585,0.6514826976331609,0.11109716849455682,0.42993530161052324,0.1177660810718435,0.10382420140183149,0.7045509594151855,51.10428860015236,cuda
MITDB,170_MITDB_id_1_Medical_tr_17675_1st_17775,LP,resnet18_autoencoder_frozen,128,42,42,64,100,0.001,"[0.24494596819082895, 0.1927476848165194, 0.16001688688993454, 0.13406564543644586, 0.11225255206227303, 0.09413861980040868, 0.07926694800456364, 0.06757634629805882, 0.0581352182974418, 0.050938556591669716, 0.044916095212101936, 0.03994996286928654, 0.03610236011445522, 0.03301635260383288, 0.03048639092594385, 0.028720603945354622, 0.027015922280649345, 0.025973622997601826, 0.02502160829802354, 0.02367515799899896, 0.02290865903099378, 0.022260397672653198, 0.021626071073114872, 0.021123303721348446, 0.020861906620363396, 0.020094209040204685, 0.01960253684471051, 0.019259973118702572, 0.01871596680333217, 0.01859842489163081, 0.018049172746638458, 0.018006991905470688, 0.017705504782497883, 0.017255869694054127, 0.017094914180537064, 0.01668713241815567, 0.01657244221617778, 0.016259793968250353, 0.016024972312152386, 0.016147462806353968, 0.01618750874573986, 0.016057949047535658, 0.01568538121258219, 0.015428952562312285, 0.015454066762079796, 0.01501037801305453, 0.01491945811236898, 0.014805303265651068, 0.014800785885502895, 0.014481358540554842, 0.014383316660920778, 0.01467888088275989, 0.0142873947819074, 0.01423560936624805, 0.013870789359013239, 0.01377469797929128, 0.01360628909120957, 0.013587857907017073, 0.013553346196810404, 0.013474966244151195, 0.013158326968550682, 0.012889569625258446, 0.012494626299788555, 0.012400385923683643, 0.0125734341951708, 0.012010226957499981, 0.012272361510743698, 0.011935596043864885, 0.011711875131974617, 0.011880307458341122, 0.011396295856684446, 0.011233646733065447, 0.011120798687140146, 0.0110398530960083, 0.01088773071145018, 0.010679828623930613, 0.010748126078397036, 0.010970046743750572, 0.01041710035254558, 0.010314084123820066, 0.010270470287650824, 0.009861691544453302]","[0.2539791762828827, 0.2328500896692276, 0.19052854180335999, 0.1455785557627678, 0.10984023287892342, 0.0861925520002842, 0.07001140341162682, 0.059024667367339134, 0.05111780762672424, 0.04517287015914917, 0.040432367473840714, 0.036661362275481224, 0.03370218724012375, 0.031265443190932274, 0.029371829703450203, 0.027764945290982723, 0.026466219685971737, 0.02544144820421934, 0.024513005279004574, 0.023605852387845516, 0.022899621166288853, 0.022214286029338837, 0.021664191968739033, 0.021099953912198544, 0.020730814896523952, 0.02031008992344141, 0.019927676767110825, 0.019630370661616325, 0.019406194798648357, 0.018982731737196445, 0.018687712959945202, 0.01847212016582489, 0.018520385958254337, 0.018330546095967293, 0.018225112929940224, 0.0180690074339509, 0.017923380248248577, 0.018011145293712616, 0.0177056472748518, 0.017699746415019035, 0.017479483038187027, 0.017283417284488678, 0.017282450571656227, 0.017337030731141567, 0.017077891621738672, 0.017134142573922873, 0.017013614997267723, 0.017162878066301346, 0.016987504437565804, 0.01687279110774398, 0.01693980023264885, 0.016952836886048317, 0.016786049120128155, 0.016554265283048153, 0.016489853616803885, 0.01661212695762515, 0.016707669477909803, 0.01670088665559888, 0.016570411156862974, 0.01649262895807624, 0.016578947193920612, 0.0164452213793993, 0.01651822403073311, 0.01653008023276925, 0.016383499838411808, 0.016573187429457903, 0.0163970235735178, 0.0165192149579525, 0.016390355303883553, 0.01637336891144514, 0.016367860604077578, 0.016233597882092, 0.01670566014945507, 0.01642428431659937, 0.016667815390974283, 0.016255528666079044, 0.016525468789041042, 0.01627532485872507, 0.01655026013031602, 0.016326220706105232, 0.0163400461897254, 0.016408254392445087]",0.054835762811397945,0.5857004759612638,0.0708739182661078,0.6550780798305985,0.11540885035525696,0.4446681295673706,0.11811390168172416,0.09901129216669695,0.712547132617333,35.775172526948154,cuda
MITDB,170_MITDB_id_1_Medical_tr_17675_1st_17775,LP,resnet18_autoencoder_progressive_unfreeze,128,42,42,64,150,0.001,"[0.26668231189250946, 0.2240422690908114, 0.19331607967615128, 0.16440906623999277, 0.1376383180419604, 0.11447836458683014, 0.09526246537764867, 0.07950720687707265, 0.06682663783431053, 0.05640481350322565, 0.04846187122166157, 0.04244439924756686, 0.037811090548833214, 0.03416053578257561, 0.031180851782361668, 0.029095276879767578, 0.027229555261631806, 0.025701943164070446, 0.024568339188893635, 0.023724785695473354, 0.022578125198682148, 0.020823147458334763, 0.019249626124898594, 0.018206735452016194, 0.017882383118073147, 0.016776349085072677, 0.016324580026169617, 0.015605619177222252, 0.015540881548076868, 0.015370348623643318, 0.015044457279145718, 0.014888503743956486, 0.014471295134474834, 0.014367434196174145, 0.014479388482868671, 0.014123747901370129, 0.014096245169639587, 0.014356713586797317, 0.013682562547425428, 0.013591194525361061, 0.013657516955087582, 0.0137475134494404, 0.013443431040892998, 0.013430117008586725, 0.013793255823353926, 0.01308073274170359, 0.012797090069701275, 0.013109142892062664, 0.013485925116886696, 0.012942405262341103, 0.012645100398610035, 0.013107319207241138, 0.013111009262502193, 0.012513342313468456, 0.012532884875933329, 0.01269573283692201, 0.012223489892979464, 0.012275053498645624, 0.01210093560318152, 0.011563688206175963, 0.011614751536399126, 0.011254721786826849, 0.011668413877487183, 0.011417003503690163, 0.010982815952350697, 0.010919269329557816, 0.010920863132923841, 0.010658068116754293, 0.010502071430285772, 0.01037778596704205, 0.010643036104738712, 0.01070467879374822, 0.010195180618514618, 0.010316535520056883, 0.009967719980825981, 0.0095835174433887]","[0.26475995779037476, 0.25204668939113617, 0.2186131849884987, 0.17692746222019196, 0.14085814356803894, 0.11331875622272491, 0.09295832738280296, 0.07771391049027443, 0.06402149796485901, 0.053893525153398514, 0.04601925425231457, 0.040170030668377876, 0.036487920209765434, 0.033240750432014465, 0.030557554215192795, 0.02868946734815836, 0.027364758774638176, 0.025849085301160812, 0.02476589661091566, 0.023972216993570328, 0.02192086912691593, 0.02087060920894146, 0.019774761982262135, 0.018797479569911957, 0.018005779944360256, 0.017343733459711075, 0.016698132269084454, 0.016211981885135174, 0.016040087677538395, 0.015831337310373783, 0.015653554815798998, 0.015432518906891346, 0.015339406672865152, 0.015184389427304268, 0.015066646505147219, 0.014899512752890587, 0.014983945060521364, 0.014929405879229307, 0.014869540929794312, 0.014706663321703672, 0.014571482315659523, 0.014557811431586742, 0.014587149024009705, 0.014409971423447132, 0.01435611816123128, 0.014329018071293831, 0.014331675600260496, 0.014441668521612883, 0.01434683008119464, 0.014297492802143097, 0.014176519587635994, 0.014388174284249544, 0.01409866800531745, 0.01432109996676445, 0.014254717156291008, 0.014533929992467165, 0.014372671023011208, 0.014292927458882332, 0.014273012056946754, 0.013939787168055773, 0.013960573822259903, 0.013887559063732624, 0.013987522572278976, 0.013839154038578272, 0.013929173815995455, 0.013704489916563034, 0.013670175801962614, 0.01390368351712823, 0.013898557052016258, 0.013891259208321571, 0.013812740333378315, 0.014066473580896854, 0.013810498174279928, 0.013674202840775251, 0.013667020946741104, 0.013607733882963657]",0.057317709722879626,0.5974941036431546,0.07305054902531566,0.6634601390014326,0.1213282516099531,0.4534871784343113,0.12631726851201333,0.10186993962011641,0.7098804062198847,35.60884055914357,cuda
MITDB,170_MITDB_id_1_Medical_tr_17675_1st_17775,LP,resnet18_autoencoder_differential_lr,128,42,42,64,100,0.001,"[0.22588863968849182, 0.18406674514214197, 0.15627565483252207, 0.13420306891202927, 0.11591390520334244, 0.10032023737827937, 0.0869197907547156, 0.07568070416649182, 0.0663808137178421, 0.05844923419257005, 0.052001263946294785, 0.0464913584291935, 0.04214880242943764, 0.03873130679130554, 0.035498104989528656, 0.032893139868974686, 0.030774405226111412, 0.028934725560247898, 0.027294777023295563, 0.02577245452751716, 0.024833537948628265, 0.023712478888531525, 0.023013100028038025, 0.022242121398448944, 0.02154929470270872, 0.021019639757772286, 0.02044396537045638, 0.01991358834008376, 0.01956881769001484, 0.01923781291892131, 0.018600872717797756, 0.018086212687194347, 0.018232778335611027, 0.0175053837398688, 0.016984551213681698, 0.016727445802340906, 0.01668751674393813, 0.01623240641007821, 0.01625513130178054, 0.01566147276510795, 0.015730673136810463, 0.015584093518555164, 0.015310156003882488, 0.015267268288880587, 0.015031454774240652, 0.015116722323000431, 0.014839650597423315, 0.014775959309190512, 0.01461351616308093, 0.014415853812048832, 0.014505638275295496, 0.014149868550399939, 0.014151113263020912, 0.013890918965140978, 0.013783181086182594, 0.013740442072351774, 0.01358660263940692, 0.013633848323176304, 0.0135581085147957, 0.013395728543400764, 0.013114889928450188, 0.013379128960271677, 0.013164375443011522, 0.012763596915950378, 0.01281128435706099, 0.012851872947067022, 0.012706043974806866, 0.012387546245008707, 0.012551741364101568, 0.01216379894564549, 0.012000218809892734, 0.0121371957163016, 0.011987512931227684, 0.011847834258029858, 0.011844438035041094, 0.011607856179277102, 0.01148869019622604, 0.011240007355809212, 0.012078647967427969, 0.01153989074130853, 0.011273660697042942, 0.011224498196194569, 0.01109226249779264, 0.011487336674084267, 0.01126741354043285, 0.011335843397925297, 0.010725838908304771, 0.010689411467562119, 0.010451437129328648, 0.010150243838628134, 0.010315698261062304, 0.009898214600980282, 0.009680494200438261, 0.009454985614866018, 0.009406642833103737, 0.009280680989225706, 0.009152762747059265, 0.00919056823477149, 0.009037856012582779, 0.008766214673717817]","[0.23257217556238174, 0.21862975507974625, 0.18709655851125717, 0.1485154703259468, 0.12016111239790916, 0.09805864468216896, 0.08245045691728592, 0.07032408937811852, 0.06132790632545948, 0.054952867329120636, 0.04909045249223709, 0.04445296712219715, 0.040405578911304474, 0.03749832324683666, 0.0345612782984972, 0.03195985592901707, 0.03006243146955967, 0.02793500665575266, 0.026536956429481506, 0.025300330482423306, 0.02399053703993559, 0.02342384960502386, 0.022640674374997616, 0.021889062598347664, 0.02151524368673563, 0.020850776694715023, 0.020402233116328716, 0.020264950580894947, 0.019644186832010746, 0.0193382129073143, 0.018948659300804138, 0.018531180918216705, 0.018154009245336056, 0.017956575378775597, 0.017743677832186222, 0.017420736141502857, 0.017168590798974037, 0.017144542187452316, 0.016858788207173347, 0.016704679932445288, 0.016561692114919424, 0.016519291326403618, 0.016287226229906082, 0.01627501379698515, 0.016093360260128975, 0.016042730771005154, 0.01582734752446413, 0.015856455080211163, 0.015629685949534178, 0.015843100380152464, 0.015713858418166637, 0.01564389280974865, 0.015496197156608105, 0.015313568525016308, 0.015204187016934156, 0.01520642638206482, 0.015164229087531567, 0.015119913499802351, 0.015100209042429924, 0.014954370446503162, 0.015028021298348904, 0.014858909882605076, 0.015071445610374212, 0.014776444993913174, 0.014765003696084023, 0.01449920330196619, 0.01461392967030406, 0.014565243385732174, 0.014517651870846748, 0.014445167966187, 0.014418376609683037, 0.014492843300104141, 0.014366334304213524, 0.014429875183850527, 0.014571962878108025, 0.014329477678984404, 0.014369879849255085, 0.014185541775077581, 0.014213865622878075, 0.014402232598513365, 0.01443288754671812, 0.013925540260970592, 0.014237786643207073, 0.01397152990102768, 0.014272509142756462, 0.014257690403610468, 0.014061437454074621, 0.013995101675391197, 0.01389935053884983, 0.013781818561255932, 0.013710863422602415, 0.013641391415148973, 0.01373598212376237, 0.013688178267329931, 0.01368004223331809, 0.013602884951978922, 0.013824076391756535, 0.013630745466798544, 0.013543573208153248, 0.013630080502480268]",0.05874389037880798,0.6078242416089306,0.07501201503328125,0.6726348715942506,0.12163745654937214,0.45001597614229416,0.13074192864518852,0.10584139848159198,0.7118957479223545,48.30082488595508,cuda
MITDB,170_MITDB_id_1_Medical_tr_17675_1st_17775,LP,pvt_autoencoder_frozen,128,42,42,64,100,0.001,"[0.21351291984319687, 0.1664454092582067, 0.13466437409321466, 0.11001396675904591, 0.09046389410893123, 0.0753401331603527, 0.06338029789427917, 0.05418006144464016, 0.047178963820139565, 0.04174171946942806, 0.03751511685550213, 0.03439028871556123, 0.032018704960743584, 0.029600477777421474, 0.028126736792425316, 0.026572944596409798, 0.025453900918364525, 0.02447185789545377, 0.023863953227798145, 0.02309579246987899, 0.022087393638988335, 0.02182819539060195, 0.02142063993960619, 0.020699014887213707, 0.02026084748407205, 0.019930450866619747, 0.019666333682835102, 0.019220550544559956, 0.01881381869316101, 0.018333335717519123, 0.018009755139549572, 0.01769165477404992, 0.01741330170383056, 0.017059546895325184, 0.016645776418348152, 0.01689847093075514, 0.01637577995037039, 0.016381497494876385, 0.01627749390900135, 0.015863090598334868, 0.015932589769363403, 0.015525083988904953, 0.01582438002030055, 0.015314943622797728, 0.015353595993171135, 0.015106987673789263, 0.014750637269268433, 0.014914299050966898, 0.014699892917027077, 0.014658365243424972, 0.014842999943842491, 0.0144032157647113, 0.014329163357615471, 0.014239838812500238, 0.014179556940992674, 0.013966987375169992, 0.014062240875015656, 0.013570325604329506, 0.01361683321495851, 0.01368499438588818, 0.0134906234840552, 0.013327748980373144, 0.013283803127706051, 0.013217406968275705, 0.012833286542445421, 0.013224207796156406, 0.012676565597454706, 0.012462463850776354, 0.012525291026880344, 0.012558458838611841, 0.011919362315287193, 0.011748702420542637, 0.011854970982919136, 0.011617479690661034, 0.011542724755903086, 0.011313818084696928, 0.011359681375324726, 0.011097665100047985, 0.010887420425812403, 0.01081849168986082, 0.010777567358066639, 0.010839116759598255, 0.010474475876738628]","[0.23496916145086288, 0.202548049390316, 0.15272296965122223, 0.11149094998836517, 0.08503159135580063, 0.06829322129487991, 0.05680668726563454, 0.0487311240285635, 0.042878301814198494, 0.03850747086107731, 0.03520491346716881, 0.03261243738234043, 0.030604109168052673, 0.02890803851187229, 0.027569417841732502, 0.02636469155550003, 0.02536320500075817, 0.024541765451431274, 0.02378847263753414, 0.02318699099123478, 0.02268595527857542, 0.02213481441140175, 0.021679000928997993, 0.021095444448292255, 0.02062962669879198, 0.020206567831337452, 0.01986662484705448, 0.01950585376471281, 0.0190560482442379, 0.018787546083331108, 0.018464631401002407, 0.018203221261501312, 0.018019494600594044, 0.017764845862984657, 0.017796245403587818, 0.01749542821198702, 0.017377040348947048, 0.017233912833034992, 0.017317963764071465, 0.017194519750773907, 0.01706121489405632, 0.016842771787196398, 0.016817880794405937, 0.016607612371444702, 0.016399710439145565, 0.016475467011332512, 0.01628133188933134, 0.016120927408337593, 0.016242961399257183, 0.01595853455364704, 0.01613898342475295, 0.015916989650577307, 0.01590878004208207, 0.016015853732824326, 0.01595036219805479, 0.015895466320216656, 0.015810877084732056, 0.015744592994451523, 0.015835200436413288, 0.016014222521334887, 0.015933685936033726, 0.015749857295304537, 0.015494617633521557, 0.015441734343767166, 0.015584558248519897, 0.015653377398848534, 0.01560643594712019, 0.01569491531699896, 0.01552123250439763, 0.015528601594269276, 0.015425873920321465, 0.015413155779242516, 0.015357628930360079, 0.015501189511269331, 0.015285314992070198, 0.015354561619460583, 0.015299784019589424, 0.015458434354513884, 0.01527714729309082, 0.015490833669900894, 0.015326713677495718, 0.015531367622315884, 0.015356800518929958]",0.058091821791537414,0.600573450640854,0.07432540826977377,0.6674482763736528,0.12082741443376706,0.45918411583647634,0.12790059886942395,0.1010178074619775,0.7095037931015935,40.473560706013814,cuda
MITDB,170_MITDB_id_1_Medical_tr_17675_1st_17775,LP,pvt_autoencoder_progressive_unfreeze,128,42,42,64,150,0.001,"[0.24305796374877295, 0.19813910871744156, 0.16648607204357782, 0.1409103125333786, 0.11843389521042506, 0.09914561609427135, 0.083335030823946, 0.07086229945222537, 0.06073547713458538, 0.05273802143832048, 0.04678067130347093, 0.04183213536938032, 0.03800707682967186, 0.034761001045505203, 0.03216834273189306, 0.03028824521849553, 0.028417987438539665, 0.026955220848321915, 0.025943361222743988, 0.02455953073998292, 0.023985447672506172, 0.021588143582145374, 0.0201170031602184, 0.019330002988378208, 0.018552714958786964, 0.01820334667960803, 0.017696644489963848, 0.017191688530147076, 0.017196763617297012, 0.016785377326111, 0.01640347174058358, 0.016189295177658398, 0.01630973598609368, 0.015732180948058765, 0.01532620657235384, 0.015260507973531881, 0.014760780458649, 0.014552358537912369, 0.01458665169775486, 0.014318960718810558, 0.014351375556240479, 0.014266003233691057, 0.014131974118451277, 0.014113568856070438, 0.013901857659220695, 0.014036239124834538, 0.013674820152421793, 0.013486097101122141, 0.013538980390876532, 0.013409288755307594, 0.013354185813417038, 0.013309121287117401, 0.013343559112399817, 0.013459044974297285, 0.012848095037043095, 0.012907379772514105, 0.013140328073253235, 0.013046786499520143, 0.012900421240677437, 0.012680039585878452, 0.012463776239504417, 0.012569996838768324, 0.012265650865932306, 0.012906725673625866, 0.012581863595793644, 0.012420113664120436, 0.012628457819422087, 0.012205838691443205, 0.012157760560512543, 0.011695243262996277, 0.012062772642821074]","[0.24440786987543106, 0.22896867990493774, 0.191465325653553, 0.15131355822086334, 0.1183769442141056, 0.09322914481163025, 0.07586386054754257, 0.0638708584010601, 0.054934630170464516, 0.04791898839175701, 0.04273130185902119, 0.038933416828513145, 0.03579819202423096, 0.033309534192085266, 0.031251152977347374, 0.029502488672733307, 0.028075342066586018, 0.026758852414786816, 0.025684156455099583, 0.024755824357271194, 0.023831338621675968, 0.021434481255710125, 0.019777690060436726, 0.019011985510587692, 0.018483230844140053, 0.01792878843843937, 0.017540008760988712, 0.017195312306284904, 0.017148704268038273, 0.016772529110312462, 0.016498645301908255, 0.01679244264960289, 0.016122670844197273, 0.01603788509964943, 0.01606900803744793, 0.015757516026496887, 0.015501287300139666, 0.01531920675188303, 0.015443508513271809, 0.015175129286944866, 0.01531327236443758, 0.015112501569092274, 0.014995528850704432, 0.014919830951839685, 0.014716660138219595, 0.014662348665297031, 0.014567391946911812, 0.014675923623144627, 0.01468431344255805, 0.014397209044545889, 0.014712585136294365, 0.014558209106326103, 0.014295556116849184, 0.014190261252224445, 0.01437590504065156, 0.014545843005180359, 0.014408939983695745, 0.014345598872750998, 0.014166189357638359, 0.014182541519403458, 0.014068860560655594, 0.014032458886504173, 0.01408011931926012, 0.014278527349233627, 0.014143520966172218, 0.01430129911750555, 0.014080575201660395, 0.014023658353835344, 0.014050980098545551, 0.01397135155275464, 0.014163072686642408]",0.056286039001431504,0.5900467888819592,0.0721160265002045,0.6592754878275483,0.12138112509568617,0.4532917419142998,0.12612972886507223,0.10728627327254239,0.7113169801377945,42.107767559122294,cuda
MITDB,170_MITDB_id_1_Medical_tr_17675_1st_17775,LP,pvt_autoencoder_differential_lr,128,42,42,64,100,0.001,"[0.2613641545176506, 0.22651679068803787, 0.1959427297115326, 0.16668770958979925, 0.14177313695351282, 0.12035835658510526, 0.10197937612732251, 0.0858193797369798, 0.07295437157154083, 0.06256436742842197, 0.05416546886165937, 0.04779802386959394, 0.04250657558441162, 0.03855100957055887, 0.03488078899681568, 0.03244107961654663, 0.030223838984966278, 0.028339665693541367, 0.026851608728369076, 0.025634727751215298, 0.02472300889591376, 0.0237705713758866, 0.022985735287268955, 0.022042520033816498, 0.021735485643148422, 0.021121799635390442, 0.020937804753581684, 0.020516447412470978, 0.02018142770975828, 0.020290242197612923, 0.01965486630797386, 0.019543861349423725, 0.019288858398795128, 0.018760306760668755, 0.01886743555466334, 0.018694023912151653, 0.018703020177781582, 0.018284511752426624, 0.018316836406787235, 0.017935715305308502, 0.017943415169914562, 0.01765402623762687, 0.017932103325923283, 0.01776487349222104, 0.017530032123128574, 0.017300553309420746, 0.017195607535541058]","[0.24997465312480927, 0.25893761217594147, 0.20249972492456436, 0.15958759933710098, 0.12426041811704636, 0.10049401596188545, 0.08213581144809723, 0.06922198832035065, 0.05919013358652592, 0.052406640723347664, 0.04704698733985424, 0.04243628308176994, 0.03883223980665207, 0.035598551854491234, 0.03296764753758907, 0.030675911344587803, 0.02866082824766636, 0.027207907289266586, 0.026027614250779152, 0.025041957385838032, 0.024299005046486855, 0.02353907749056816, 0.02308785729110241, 0.0224932124838233, 0.02197092119604349, 0.021594765596091747, 0.021199333481490612, 0.020943247713148594, 0.020547019317746162, 0.020346624776721, 0.020224548876285553, 0.019848543219268322, 0.01980714313685894, 0.019605135545134544, 0.01939340028911829, 0.019339391961693764, 0.019229011610150337, 0.01920168474316597, 0.01917083002626896, 0.019153671339154243, 0.019196920096874237, 0.019286520779132843, 0.019429734908044338, 0.020018232986330986, 0.019986476749181747, 0.0199663108214736, 0.019328728318214417]",0.05139353555490524,0.555623549525082,0.06763167898152675,0.631434337173016,0.10623409230897274,0.44057045975865167,0.11068453458891694,0.10448275380220992,0.6991640609279463,30.024928065016866,cuda
MITDB,170_MITDB_id_1_Medical_tr_17675_1st_17775,SG,cnn_autoencoder,128,42,42,64,150,0.001,"[0.09459644556045532, 0.08171107123295467, 0.07427738358577092, 0.06780381376544635, 0.05964263528585434, 0.05122573797901472, 0.04481538012623787, 0.038445672020316124, 0.034347351640462875, 0.029043130887051422, 0.0253763310611248, 0.02152244591464599, 0.018001478320608538, 0.015594145438323418, 0.013438007949541012, 0.011856028034041325, 0.009987487147251764, 0.009078703665484985, 0.008224526653066278, 0.007361437814931075, 0.006528597325086594, 0.006289634853601456, 0.00605978552872936, 0.005716368866463502, 0.00552239043948551, 0.004803933047999938, 0.00469222121561567, 0.004326411910975973, 0.0040498336699480815, 0.0038828158285468817, 0.0037266771929959455, 0.003591819181262205, 0.0036587791983038187, 0.004301983785505096, 0.003714898213123282, 0.0033834959225108228, 0.0033304550452157855, 0.00327045691665262, 0.0032076645099247494, 0.003062327935670813, 0.003018967186411222, 0.0032098789621765413, 0.0032885912029693523, 0.0033570442271108427, 0.00301977910567075, 0.002851779921911657, 0.003264967274541656, 0.002910393949908515, 0.0028877969598397613, 0.002962667145766318, 0.0029887573327869177, 0.002983272929365436, 0.002605383711246153, 0.003200208011548966, 0.0028659916715696454, 0.0028769366908818483, 0.0030428008564437428, 0.002969936700537801, 0.0028060326585546136, 0.002855976616653303, 0.002497701692239692, 0.0027809427313817046, 0.002831654855981469, 0.0026067403377965093, 0.002711740438826382, 0.00282865297049284, 0.0030907917534932494, 0.002927248637812833, 0.002517990282891939, 0.0030293793339903155, 0.0026451929782827697, 0.0028769797645509243, 0.00288426437570403, 0.00267744188507398, 0.002476471728490045, 0.00300741899991408, 0.002932895324192941, 0.002697689187092086, 0.0028023750443632403, 0.0027333185619985065, 0.0028160088695585728, 0.002469856757670641, 0.0024641783287127814, 0.0025678304955363274, 0.0027467247176294527]","[0.08637428656220436, 0.08257210999727249, 0.07509323209524155, 0.06726670637726784, 0.05906986817717552, 0.047041064128279686, 0.03523644432425499, 0.028837486170232296, 0.025092655792832375, 0.021228468976914883, 0.018159255385398865, 0.01610154053196311, 0.013941532466560602, 0.012072022538632154, 0.011341822799295187, 0.01107764383777976, 0.010807886254042387, 0.010095939971506596, 0.008128432789817452, 0.008995289914309978, 0.007699293550103903, 0.0067155552096664906, 0.006376178236678243, 0.00680768839083612, 0.006411916809156537, 0.005971105536445975, 0.005312718800269067, 0.00503143563400954, 0.004897627979516983, 0.004762431839480996, 0.004661954240873456, 0.004634732496924698, 0.0045811409363523126, 0.0044461567886173725, 0.004602418979629874, 0.004431155044585466, 0.004261254682205617, 0.004099296638742089, 0.004107840359210968, 0.004008992342278361, 0.003959797555580735, 0.004099707119166851, 0.004726768471300602, 0.00393023737706244, 0.0038136171642690897, 0.0037849536165595055, 0.003789236769080162, 0.003765352419577539, 0.0037618849892169237, 0.0036979971919208765, 0.003678648266941309, 0.003685801406390965, 0.003666905453428626, 0.0036512608639895916, 0.003654750995337963, 0.0036391594912856817, 0.003593296161852777, 0.0036344859981909394, 0.003612814238294959, 0.003554524388164282, 0.0036493261577561498, 0.0036259456537663937, 0.0036122803576290607, 0.003604500670917332, 0.0035695445258170366, 0.0035852791042998433, 0.003504009102471173, 0.0035083070397377014, 0.0035020518116652966, 0.0034878115402534604, 0.0034790572244673967, 0.0034898463636636734, 0.0034834425896406174, 0.003451877855695784, 0.0034495759755373, 0.0034465717617422342, 0.0034486481454223394, 0.0034373474773019552, 0.00343239214271307, 0.0034607446286827326, 0.003420315682888031, 0.0034207443241029978, 0.0034170789876952767, 0.0034227174473926425, 0.0034221054520457983]",0.05263299860961024,0.5515410350539858,0.06819685082295739,0.6220335662074986,0.11217039362804022,0.41521206409048067,0.11558099085451372,0.09923341371406649,0.6978255778129652,28.9130467439536,cuda
MITDB,170_MITDB_id_1_Medical_tr_17675_1st_17775,SG,resnet18_autoencoder_frozen,128,42,42,64,100,0.001,"[0.08384973307450612, 0.06301258442302544, 0.04792629120250543, 0.03657253955801328, 0.02910381555557251, 0.024117242234448593, 0.019122659228742123, 0.015055070631206036, 0.013397993830343088, 0.011181254405528307, 0.010975741781294346, 0.008649658489351472, 0.00776884510802726, 0.006864485486100118, 0.007563078620781501, 0.006410709271828334, 0.0057032236363738775, 0.006243582155245046, 0.004407724093956252, 0.004050755058415234, 0.004334657724636297, 0.003794329318528374, 0.003983342787250876, 0.003647526609711349, 0.0035352592434113226, 0.003420184638040761, 0.0034530089857677617, 0.0037718797102570534, 0.0031206324929371476, 0.0030119056658198438, 0.002831614692695439, 0.0037253760577489934, 0.003105366718955338, 0.0030745616337905326, 0.0033495734290530286, 0.002673382560412089, 0.0022841102133194604, 0.0022435876890085638, 0.0025040273321792483, 0.0035295846173539758, 0.002648966658550004, 0.002266147367966672, 0.0018815773849685986, 0.001819372138318916, 0.0017029971932061017, 0.0016362111588629584, 0.002284049211690823, 0.0018465413207498689, 0.0032685356369862952, 0.001758160147195061, 0.0016721843276172876, 0.0015541297616437078, 0.0017139444244094193, 0.0014324297953862697, 0.0014444735716097057, 0.0010463776028094192, 0.0008872949498860786, 0.0011195616486171882, 0.0008465341622165093, 0.0007133886392693967, 0.0009199292301976433, 0.0007556240307167172, 0.0008003590531491985, 0.0007303471114331236, 0.0007844788196962327, 0.0008466997048041472, 0.000617003213847056, 0.0007050811836961657, 0.0007468565697005639, 0.0008656837550612787, 0.0009849799583510805, 0.0010499419198216249, 0.0006590274181993058, 0.000622280320385471, 0.0006114752759458497, 0.000752483174437657, 0.0006675721573022505, 0.0007086956951146325, 0.0009356119359532992, 0.0006134043408868214, 0.0006135367051077386, 0.0007623312461267536, 0.0006201033538673073]","[0.07984476163983345, 0.08037390559911728, 0.08410141617059708, 0.06210245192050934, 0.043998755514621735, 0.027373810298740864, 0.021294099278748035, 0.017074956092983484, 0.015172259882092476, 0.012820759788155556, 0.011603459250181913, 0.010871762176975608, 0.009813583921641111, 0.008929818402975798, 0.007197191007435322, 0.006478839786723256, 0.005813699914142489, 0.005804144544526935, 0.005617834394797683, 0.005412765080109239, 0.005103810224682093, 0.005047508864663541, 0.004882649751380086, 0.004870845237746835, 0.004851132514886558, 0.004978444543667138, 0.004651659983210266, 0.004505966207943857, 0.004470853484235704, 0.004743421450257301, 0.004412956186570227, 0.004083741805516183, 0.004308606847189367, 0.003940114285796881, 0.003953112754970789, 0.0043773711659014225, 0.0037945719668641686, 0.003617567475885153, 0.0035152623895555735, 0.004929742543026805, 0.0034199689980596304, 0.0026329283136874437, 0.003706650692038238, 0.003036120324395597, 0.0028081403579562902, 0.002838056650944054, 0.0026307550724595785, 0.0036031216150149703, 0.0027193487621843815, 0.003956144908443093, 0.0026228942442685366, 0.002188552462030202, 0.0026128439931198955, 0.002464346238411963, 0.0026359305484220386, 0.0026862764498218894, 0.002394401584751904, 0.0024823182029649615, 0.002523802686482668, 0.0023130072513595223, 0.001985590090043843, 0.002206628385465592, 0.002101560530718416, 0.0020759926992468536, 0.002009627118241042, 0.0019782111048698425, 0.0020393248996697366, 0.0018463904852978885, 0.0017949522589333355, 0.0018148438539355993, 0.0019795187981799245, 0.0018300280207768083, 0.0017300793551839888, 0.0017433288739994168, 0.001707731920760125, 0.0019083330407738686, 0.002041146974079311, 0.0017945627914741635, 0.0017040871898643672, 0.001973982434719801, 0.002196794899646193, 0.00200396659784019, 0.001895933470223099]",0.059163857884053726,0.5883429635350728,0.07680279308858785,0.6579737140509433,0.11213980990105002,0.5210587830869715,0.1248223980377786,0.10311601103357175,0.708191716400213,34.210734992986545,cuda
MITDB,170_MITDB_id_1_Medical_tr_17675_1st_17775,SG,resnet18_autoencoder_progressive_unfreeze,128,42,42,64,150,0.001,"[0.10013727719585101, 0.07189062734444936, 0.05872258668144544, 0.04781794982651869, 0.03902039242287477, 0.030879852672417957, 0.026428024594982464, 0.021021175819138687, 0.016713104055573542, 0.013054207433015108, 0.010339946486055851, 0.008606905660902461, 0.007366010375941793, 0.006366976459200184, 0.005649848996351163, 0.0050293455909316736, 0.005104092725863059, 0.0040371080006783204, 0.0038911296675602594, 0.003880840027704835, 0.004357659413168828, 0.004563230477894346, 0.003550380701199174, 0.002533279398145775, 0.003622759444018205, 0.002208165649790317, 0.0017770824488252401, 0.0015361846502249439, 0.0013648728684832652, 0.0012559423921629786, 0.0011505199266442407, 0.0010515042134405423, 0.001298942690482363, 0.0012882392232616742, 0.0010987856076098979, 0.0009854961244855076, 0.0008702631942772617, 0.0009062971027257541, 0.0007180654890059183, 0.000824477057904005, 0.0008354897145181894, 0.0008291550038848072, 0.0009261177813944718, 0.0009922053286572918, 0.0007835837992994735, 0.0007457318715751171, 0.0007102311647031456, 0.0005670743315325429, 0.0005303974758135155, 0.0008816150899898881, 0.0006685608047215889, 0.0005871395405847579]","[0.09688220173120499, 0.09481173381209373, 0.08652381226420403, 0.07314202934503555, 0.050408804789185524, 0.034765273332595825, 0.025387021712958813, 0.019744979217648506, 0.015806167386472225, 0.012994759250432253, 0.011238140985369682, 0.009637915762141347, 0.008432147791609168, 0.007679004687815905, 0.007025770843029022, 0.006381242070347071, 0.005194683559238911, 0.005432891193777323, 0.004850298399105668, 0.004372757044620812, 0.008546086493879557, 0.011074840556830168, 0.005287717562168837, 0.006653227144852281, 0.003386775264516473, 0.002643026993609965, 0.002783500705845654, 0.002403122140094638, 0.0018920518923550844, 0.001493046642281115, 0.0014480312820523977, 0.0013990648440085351, 0.0013981288066133857, 0.0016209018067456782, 0.0013367178034968674, 0.0016350469086319208, 0.0016459409380331635, 0.0018393464270047843, 0.0013371984532568604, 0.0015259193605743349, 0.0012683566601481289, 0.0011687403020914644, 0.0013062651851214468, 0.0016748346388339996, 0.0016397727886214852, 0.0014445154811255634, 0.0017199983703903854, 0.0014585531316697598, 0.0015889548230916262, 0.0016447339148726314, 0.0015125361969694495, 0.001481078303186223]",0.055078103919226865,0.5667941871370079,0.07206191144822184,0.6401184842314664,0.10568023377729396,0.4787903973404085,0.11275373595441324,0.09869449769879823,0.7033015264323665,24.373366171028465,cuda
MITDB,170_MITDB_id_1_Medical_tr_17675_1st_17775,SG,resnet18_autoencoder_differential_lr,128,42,42,64,100,0.001,"[0.09554342553019524, 0.06972386315464973, 0.05472086742520332, 0.04382511662940184, 0.036381697903076805, 0.02977916008482377, 0.023637760430574417, 0.018916703139742214, 0.014880521533389887, 0.012112642638385296, 0.009558645387490591, 0.007705254868293802, 0.006709880117947857, 0.005551655621578296, 0.005584106004486482, 0.004543084961672624, 0.0046518908347934484, 0.0042266313297053175, 0.0037144419038668275, 0.004551491389671962, 0.003841791612406572, 0.003945443507594367, 0.0036092986507962146, 0.004349025936486821, 0.0037399954550589123, 0.0034327410782376924, 0.003602920720974604, 0.003299156824747721, 0.0030246094490091005, 0.003155532719877859, 0.002649306843522936, 0.0027647028715970614, 0.002519394659126798, 0.0021146471068883934, 0.0024067662307061255, 0.001988424473286917, 0.002117992650407056, 0.002439099655020982, 0.002517496449096749, 0.002022006956394762, 0.002352227767308553, 0.00173760197746257, 0.001457537563207249, 0.0013217310576389234, 0.001370265750059237, 0.002156772262727221, 0.001309999352088198, 0.0013338443144069363, 0.0013403170354043443, 0.0012620000634342432, 0.0010209708222343277, 0.0011723406593470524, 0.001028804302526017, 0.001037480222294107, 0.0009103455134512236, 0.000892808175800989, 0.0008499428804498166, 0.0012145700845091294, 0.0010992789854450773, 0.0018095134291797876, 0.0011297856011272718, 0.0008339184666207681, 0.0008656303495323906, 0.000844576560969775, 0.0007488964668785533, 0.0012069270790865023, 0.0006191875339330485, 0.0006211023331464579, 0.0006076767749618739, 0.000617003912338987, 0.0006751104180390636, 0.0005440523139744377, 0.0011219841204971697, 0.0005966841514843205, 0.0006567270029336214, 0.0007056156076335659, 0.0005676361033692956, 0.0004767189481450866, 0.0008735633697748805, 0.000641947059193626, 0.0005916167525962616, 0.0005764026476147895, 0.00053280347007482, 0.0004905120877083391]","[0.09567086771130562, 0.08874981105327606, 0.07756908982992172, 0.056377775967121124, 0.04175996407866478, 0.031171790324151516, 0.02356480434536934, 0.017100303433835506, 0.012883301358669996, 0.01145867956802249, 0.009067151229828596, 0.008729299530386925, 0.007039510179311037, 0.0065636346116662025, 0.006081512430682778, 0.0054170486982911825, 0.004858765285462141, 0.005040971329435706, 0.004862117813900113, 0.00445240642875433, 0.004836010048165917, 0.004501168034039438, 0.004444636753760278, 0.004466407932341099, 0.005031599430367351, 0.005046451813541353, 0.004314904334023595, 0.003698714659549296, 0.003257218049839139, 0.003104382660239935, 0.0033435774967074394, 0.0033727766713127494, 0.0029758422169834375, 0.0027334587648510933, 0.002222399925813079, 0.002660652855411172, 0.0025893179117701948, 0.00317956879734993, 0.0037654126062989235, 0.0038514018524438143, 0.003365374286659062, 0.0019209313904866576, 0.0019173414912074804, 0.0017696703434921801, 0.0015533568803220987, 0.001649727113544941, 0.00160695961676538, 0.001473145850468427, 0.001472124073188752, 0.001542662619613111, 0.0016199856763705611, 0.001408693555276841, 0.001426936243660748, 0.0012555187568068504, 0.0011688556987792253, 0.0012222993827890605, 0.0011412861640565097, 0.0011170539073646069, 0.0010862753842957318, 0.0010670119663700461, 0.0011782195651903749, 0.0012597758031915873, 0.0012787618325091898, 0.001077405468095094, 0.0010713894153013825, 0.0010018909815698862, 0.0009287678985856473, 0.0008326906536240131, 0.0008355025784112513, 0.000922110746614635, 0.0008286088414024562, 0.0007475317979697138, 0.000756443856516853, 0.0007157180225476623, 0.000758131529437378, 0.0007739257416687906, 0.0007890701817814261, 0.0008796917973086238, 0.0008661551692057401, 0.0011550362105481327, 0.0009582951315678656, 0.0007760703738313168, 0.0007066898688208312, 0.0008977930992841721]",0.060654395052591736,0.5981286423529045,0.07757536353952495,0.666594437506065,0.11870648528412701,0.45028842095389954,0.12256857855361583,0.10235746380096199,0.7025775830283929,39.196835124865174,cuda
MITDB,170_MITDB_id_1_Medical_tr_17675_1st_17775,SG,pvt_autoencoder_frozen,128,42,42,64,100,0.001,"[0.09319573144117992, 0.06525874882936478, 0.04661067761480808, 0.0367023590952158, 0.028862545266747475, 0.023124657571315765, 0.01916910692428549, 0.01596031617373228, 0.014800611107299725, 0.013098933268338442, 0.010312924316773811, 0.008581884360561768, 0.00808915845118463, 0.006401471560820937, 0.005977963951105873, 0.005517787455270688, 0.004815349355340004, 0.004921110890184839, 0.004796171366857986, 0.004325873567722738, 0.003880746546201408, 0.0037401996087282896, 0.0037676671830316386, 0.003607681719586253, 0.0037379250085602203, 0.0034977380807201066, 0.0035216931137256324, 0.0031155823186660805, 0.0032241897424682975, 0.0031252974877133965, 0.002746051837069293, 0.002573716454207897, 0.002720227581448853, 0.0026166941000459096, 0.002155970549210906, 0.002051324622395138, 0.002006496438601365, 0.0020429386446873346, 0.0018853438086807728, 0.0018022344253646831, 0.0015215418922404449, 0.0016120839669990044, 0.0016253413632512093, 0.0015899578769070406, 0.0016862045934734244, 0.0015694412674444418, 0.0014503133910087247, 0.0012852250365540385, 0.0013353896987003584, 0.0013249050825834274, 0.001114341333353271, 0.0010894688214951505, 0.001113339812339594, 0.001077564898878336, 0.0010779552103485912, 0.0010050864463361602, 0.0011173727301259835, 0.0009542634749474624, 0.0009479922203657528, 0.0008826371437559525, 0.0008370117575395852, 0.0007462228046885381, 0.0009435196407139301, 0.0007465143474595001, 0.0007409952522721142, 0.0008362438529729843, 0.0009348604071419686, 0.000665772754776602, 0.0005667267056802908, 0.0006154265817410002]","[0.09260281547904015, 0.07832597568631172, 0.056263456121087074, 0.038941195234656334, 0.02843647077679634, 0.02183273807168007, 0.01804162561893463, 0.015941717196255922, 0.014481838792562485, 0.012837129645049572, 0.011090064886957407, 0.009905669372528791, 0.008905207738280296, 0.007931523257866502, 0.007234473712742329, 0.006381940329447389, 0.006505483761429787, 0.005782784661278129, 0.005472057266160846, 0.005323369754478335, 0.005413203267380595, 0.005084704607725143, 0.004876136896200478, 0.004795800661668181, 0.004810964222997427, 0.004937745165079832, 0.0046794540248811245, 0.004320631735026836, 0.00428167637437582, 0.00407869799528271, 0.0042162417666986585, 0.003885333426296711, 0.0037732927594333887, 0.003453329671174288, 0.004095968324691057, 0.0035055987536907196, 0.003151190932840109, 0.0033150097588077188, 0.002996974973939359, 0.003208436886779964, 0.0032283535692840815, 0.0028543465305119753, 0.003269243286922574, 0.003507399931550026, 0.0029989549657329917, 0.0028106961399316788, 0.0029574562795460224, 0.0028744598384946585, 0.0029522834811359644, 0.0027430427726358175, 0.002484113909304142, 0.002609698101878166, 0.0025537286419421434, 0.0029545717407017946, 0.0027926889015361667, 0.0024588238447904587, 0.002869055839255452, 0.0023468484869226813, 0.0022210831521078944, 0.002105501131154597, 0.0024480404099449515, 0.0023242970928549767, 0.0022673828061670065, 0.0022807776695117354, 0.002508648205548525, 0.0023022381355986, 0.0021871678764000535, 0.0021118761505931616, 0.0023796078749001026, 0.0022181649692356586]",0.055989988015756414,0.5557350927289354,0.07345836612548047,0.6312216039814701,0.10204234708597573,0.42907633064303424,0.11643242054327485,0.1023008929540723,0.7045536565397069,33.188261557137594,cuda
MITDB,170_MITDB_id_1_Medical_tr_17675_1st_17775,SG,pvt_autoencoder_progressive_unfreeze,128,42,42,64,150,0.001,"[0.0878006046017011, 0.05949548197289308, 0.04349083391328653, 0.03323235331724087, 0.025520192459225655, 0.020353933175404865, 0.016442881741871435, 0.012965177185833454, 0.01134977334489425, 0.009400425789256891, 0.008147465763613582, 0.006813826660315196, 0.005940972284103434, 0.005179873628852268, 0.0046395050012506545, 0.004806529148481786, 0.004325976052011053, 0.004402367786193888, 0.003963418576555948, 0.003934728175712128, 0.012580199089522162, 0.008525618041555086, 0.006892425396169226, 0.006168013749023278, 0.0055410282996793585, 0.005058851170664032, 0.004184106248430908, 0.0037299812926600375, 0.003194721784287443]","[0.09010497108101845, 0.07731914520263672, 0.0538999754935503, 0.03608454577624798, 0.02425047568976879, 0.018270718399435282, 0.015427560545504093, 0.013016876298934221, 0.011308462359011173, 0.010689923074096441, 0.008539006114006042, 0.007717054802924395, 0.006967341061681509, 0.006304959999397397, 0.00601979112252593, 0.005537547171115875, 0.00555046321824193, 0.005320830969139934, 0.005126992706209421, 0.005057773552834988, 0.018508815206587315, 0.01130957342684269, 0.009341319557279348, 0.00714263878762722, 0.006075240904465318, 0.005794796161353588, 0.006885360926389694, 0.005423465045168996, 0.00941435992717743]",0.05444190636614978,0.5678927400645486,0.0709152924878827,0.6400830924666002,0.10790380583750085,0.40501442100243,0.11570431662254377,0.09390156443942771,0.7028340418067455,15.69158635288477,cuda
MITDB,170_MITDB_id_1_Medical_tr_17675_1st_17775,SG,pvt_autoencoder_differential_lr,128,42,42,64,100,0.001,"[0.07981528093417485, 0.0597565732896328, 0.045458512380719185, 0.0337260120237867, 0.026302332989871502, 0.020828271905581158, 0.016613380052149296, 0.014248294134934744, 0.013039696495980024, 0.014183464460074902, 0.011435541789978743, 0.010313055478036404, 0.012870488222688437, 0.01131449934716026, 0.010041581466794014, 0.009512389311566949, 0.008975542693709334, 0.010851386158416668, 0.009565398097038269, 0.009595234723140797, 0.008439935355757674, 0.008787326437110702, 0.008915738357851902, 0.007990655566876134, 0.007722161166990797, 0.007318421111752589, 0.007952911546453834, 0.007955416105687618, 0.0066402429559578495, 0.006292144224668543, 0.006144650784942011, 0.008017183397896588, 0.006186868607377012, 0.0058335439922908945, 0.006034709746018052, 0.00549017187828819, 0.005583851287762324, 0.005350514315068722, 0.0052489096609254675, 0.0052723451517522335, 0.005416035031278928, 0.005516503471881151, 0.006332758426045378, 0.0062592929850022, 0.0055535575763011975, 0.005581546497220795, 0.0052508718411748605, 0.004930415578807394, 0.005110394985725482, 0.004688763137285908, 0.004624385037459433, 0.00433747210384657, 0.004280586377717555, 0.004253195889759809, 0.004199967874834935, 0.003908112567539017, 0.003732508688699454, 0.0034860267187468708, 0.003906001375677685, 0.0036789763641233244, 0.003528338624164462, 0.0028190010343678296, 0.0025996521192913256, 0.0025254317927950374, 0.0023226108169183135, 0.0021826534648425877, 0.002078541205264628, 0.0018002185388468206, 0.0020662975924399993, 0.002004150825086981, 0.002030879200901836, 0.001952643971890211, 0.0018488638452254236, 0.0015875224683744211, 0.0019019906758330762, 0.002042396847779552, 0.0012934931631510456, 0.0012164429451028507, 0.0011257792551380892, 0.0010885849381641795, 0.0012313072414447863, 0.000916291600636517, 0.0009108432665622482, 0.0009786510490812361, 0.0009216296020895243, 0.0009124496427830309, 0.0008557769372904053, 0.0007829201058484614, 0.0008074992122904708, 0.0009387728350702673, 0.0008174205043663582, 0.0007746362728842845]","[0.0711667500436306, 0.06577373668551445, 0.05651431530714035, 0.04016423225402832, 0.02740055974572897, 0.02131885476410389, 0.017178837209939957, 0.015076516661792994, 0.013601775281131268, 0.012610546313226223, 0.012230000924319029, 0.011843242216855288, 0.012477632611989975, 0.01184168178588152, 0.011537273414433002, 0.011042790254577994, 0.021450111642479897, 0.011837334837764502, 0.011945264879614115, 0.010692175710573792, 0.01039057387970388, 0.01032145437784493, 0.011024881154298782, 0.009543011663481593, 0.009566896129399538, 0.01080442382954061, 0.008490699110552669, 0.00865558534860611, 0.007837621960788965, 0.014509638771414757, 0.008508209371939301, 0.007828787434846163, 0.007739566732198, 0.011035788338631392, 0.007232676260173321, 0.007393202045932412, 0.0072988467290997505, 0.0062497912440449, 0.006561110727488995, 0.00640144245699048, 0.009526883251965046, 0.00663847615942359, 0.008823426440358162, 0.007411325350403786, 0.008779176510870457, 0.006629242096096277, 0.006566348951309919, 0.005862424382939935, 0.007849400164559484, 0.006157723255455494, 0.00668958411552012, 0.005491503630764782, 0.005267453147098422, 0.0051355548202991486, 0.005341199692338705, 0.004918408230878413, 0.004743494791910052, 0.004674670752137899, 0.0044452042784541845, 0.004300106666050851, 0.0039914497174322605, 0.0039143371395766735, 0.0033230334520339966, 0.003444144269451499, 0.003078897949308157, 0.0028402337338775396, 0.002805529977194965, 0.002575926424469799, 0.0018664016388356686, 0.002906866022385657, 0.002781220944598317, 0.002496759290806949, 0.0020478431251831353, 0.0019557351479306817, 0.0021709896391257644, 0.001721043896395713, 0.0017398701165802777, 0.0015372930211015046, 0.0013013461139053106, 0.0015026034088805318, 0.0011947539169341326, 0.0010902259964495897, 0.0010777111165225506, 0.0011922928970307112, 0.0010889826226048172, 0.0010893490398302674, 0.0010058456100523472, 0.0010547386482357979, 0.0011613898386713117, 0.0010139232326764613, 0.0010489817359484732, 0.0010324548347853124]",0.06292639091746394,0.5907514865501273,0.07831814599710793,0.6605724634301017,0.11328474975582796,0.5617121505110572,0.14921333107765136,0.11067864757893048,0.7112989773618107,55.70535690989345,cuda
MITDB,170_MITDB_id_1_Medical_tr_17675_1st_17775,GASF,cnn_autoencoder,128,42,42,64,150,0.001,"[0.13167240470647812, 0.11957578485210736, 0.10902280981341998, 0.09815780694286029, 0.08679406096537907, 0.07517541696627934, 0.06516469952960809, 0.05637417733669281, 0.04965688039859136, 0.04214498586952686, 0.036974423875411354, 0.03152146811286608, 0.027120390286048252, 0.024831073669095833, 0.021854617943366367, 0.019614245432118576, 0.01764444603274266, 0.016189026335875194, 0.01458784177278479, 0.013644473937650522, 0.012471534622212252, 0.011847686177740494, 0.010725056752562523, 0.010139811939249435, 0.009873693653692802, 0.009558468125760555, 0.00872770215695103, 0.008413497979442278, 0.00798607423591117, 0.007663543879364927, 0.007414132046202819, 0.0071195189375430346, 0.0066163509618490934, 0.006674891182531913, 0.006209155234197776, 0.006059887896602352, 0.006202790032451351, 0.0058351280943801, 0.005762827737877767, 0.005537915121143063, 0.0055968123488128185, 0.005661266390234232, 0.005364951677620411, 0.005078387369091312, 0.005275027904038628, 0.00491507778254648, 0.0049732904105136795, 0.00464985822327435, 0.004702931658054392, 0.004479423863813281, 0.004886499683683117, 0.004513238246242206, 0.004323406144976616, 0.004123362246900797, 0.004126928319844107, 0.004031036514788866, 0.004214862361550331, 0.0041613191133365035, 0.004170974095662435, 0.004234417884921034, 0.003981337261696656, 0.003794231995319327, 0.0038104730968674025, 0.0038604122043276825, 0.0037377867459629974, 0.003581676360530158, 0.003495136508718133, 0.0036971145309507847, 0.0034667332656681538, 0.0035068117237339416, 0.0034976104895273843, 0.0032457833100731173, 0.0031806001594911018, 0.003339469743271669, 0.0033611919110020003, 0.003216469233545164, 0.0033387755199025073, 0.003239408445854982, 0.003161127601439754, 0.003274704678915441, 0.00309135978265355, 0.003094039663362006, 0.002920779244353374, 0.0032145066652446985, 0.002926775331919392, 0.0029131537691379585, 0.003254869176695744, 0.0030582586380963526, 0.0028621830279007554, 0.002884452735694746, 0.00288108146438996, 0.002700151215928296, 0.0027505831870560846, 0.0027191889627526202, 0.002661574243878325, 0.0027265480797116957, 0.0027662972764422498, 0.002661160659044981, 0.002576213407640656, 0.002590366367561122, 0.002698788341755668, 0.0025722618059565625, 0.002594863336222867, 0.0025161764351651073, 0.002572273602709174, 0.0023945382175346217, 0.0026886470538253584, 0.0025602939228216806, 0.0026674329225594797, 0.0023479306837543845, 0.002424946869723499, 0.0023466378139952817, 0.002362506192487975, 0.0024381150336315236, 0.0022559411202867827, 0.0022274927662995956, 0.002334704389795661, 0.0023676028940826654, 0.002561756526120007, 0.002280963545975586, 0.0023767336194093027, 0.002330596384126693, 0.002245682291686535, 0.0021084843513866267, 0.0020916815653132894, 0.0019967713160440326, 0.0020417042154197893, 0.0021387774031609297, 0.002076909819152206, 0.0020388599950820208, 0.0021453603015591702, 0.0020515570455851653, 0.0021152903985542557, 0.002006355149205774, 0.0021040526141102114, 0.0020130052774523697, 0.0019446219666860998, 0.0019315687823109329, 0.0019590560696087778, 0.0019623419114698968, 0.0023809443810023367]","[0.12641896307468414, 0.12238067016005516, 0.11476258561015129, 0.10268000140786171, 0.08907164260745049, 0.07472747936844826, 0.061721066012978554, 0.052441854029893875, 0.044618649408221245, 0.03909588232636452, 0.032862549647688866, 0.028744599781930447, 0.025064854882657528, 0.021869994699954987, 0.0194128742441535, 0.01754606794565916, 0.016509179957211018, 0.015030191745609045, 0.01414797781035304, 0.013243618421256542, 0.012366838287562132, 0.012194617185741663, 0.010934620164334774, 0.010616705752909184, 0.009986562188714743, 0.00962568772956729, 0.009723402094095945, 0.009048030711710453, 0.008880773559212685, 0.008287935052067041, 0.008198535069823265, 0.00807844428345561, 0.007794636068865657, 0.00759630324319005, 0.0078049704898148775, 0.0072669952642172575, 0.0071706518065184355, 0.007067309692502022, 0.00697593460790813, 0.00693272752687335, 0.006874222541227937, 0.006789160193875432, 0.0065585949923843145, 0.006521365838125348, 0.006531537743285298, 0.006384289124980569, 0.006384711945429444, 0.006093521602451801, 0.006161196855828166, 0.006100494880229235, 0.00596254225820303, 0.006085681961849332, 0.00582047482021153, 0.006033946992829442, 0.005778620718047023, 0.005697619868442416, 0.005743855843320489, 0.005616514710709453, 0.005765334004536271, 0.005800632061436772, 0.005637993570417166, 0.005486096255481243, 0.005475739482790232, 0.005448730895295739, 0.005461663706228137, 0.005335420835763216, 0.005232591414824128, 0.005243344698101282, 0.005175055470317602, 0.005155103048309684, 0.005102680763229728, 0.005067084915935993, 0.005149848759174347, 0.004989470122382045, 0.005103661213070154, 0.005020044045522809, 0.0051746307872235775, 0.004902829881757498, 0.00505786738358438, 0.004967964254319668, 0.005028808955103159, 0.005024027312174439, 0.004871551878750324, 0.004931112285703421, 0.004891151562333107, 0.004777786089107394, 0.004947782261297107, 0.004787799436599016, 0.004775588866323233, 0.004791833460330963, 0.00471432926133275, 0.004697998054325581, 0.004668266512453556, 0.004705282626673579, 0.0046374688390642405, 0.004681156948208809, 0.0048022582195699215, 0.00472564622759819, 0.004605280235409737, 0.004549206467345357, 0.004543711198493838, 0.0046126521192491055, 0.00456820335239172, 0.004594781436026096, 0.004519219044595957, 0.004462923621758819, 0.0044930195435881615, 0.004485526122152805, 0.004554519895464182, 0.004567715572193265, 0.004458991112187505, 0.004452842520549893, 0.00439910008572042, 0.004576990846544504, 0.004453065572306514, 0.004313912941142917, 0.0043602692894637585, 0.004461988806724548, 0.004569441545754671, 0.004488819511607289, 0.004339243285357952, 0.004346061265096068, 0.004326887894421816, 0.004245912889018655, 0.004246837459504604, 0.004203962627798319, 0.004235977539792657, 0.004224632401019335, 0.004306110320612788, 0.004207854857668281, 0.004228738835081458, 0.0042446262668818235, 0.004189008614048362, 0.004196311580017209, 0.00417070765979588, 0.0041977399960160255, 0.004178249044343829, 0.004204715136438608, 0.004178700619377196, 0.00419494928792119, 0.00417006725911051]",0.04237499206383797,0.4724279584715395,0.05554489774450267,0.5489184964685181,0.09335735021866765,0.3598461742474473,0.09318228719764514,0.10539967177407558,0.6894385530965134,51.66476435796358,cuda
MITDB,170_MITDB_id_1_Medical_tr_17675_1st_17775,GASF,resnet18_autoencoder_frozen,128,42,42,64,100,0.001,"[0.13081973666946092, 0.10722646365563075, 0.09252343450983365, 0.08028255651394527, 0.07041494672497113, 0.06459309471150239, 0.05752767498294512, 0.051452224453290306, 0.047089945524930954, 0.043344941611091294, 0.04045492224395275, 0.03830200247466564, 0.03699079590539137, 0.03502070469160875, 0.034006902327140175, 0.032691736395160355, 0.03173040350278219, 0.03065355618794759, 0.030955089256167412, 0.029334215447306633, 0.028462303802371025, 0.027558803868790466, 0.026591144191722076, 0.024967084017892677, 0.02404522554328044, 0.023179277156790096, 0.023135538523395855, 0.022016786970198154, 0.021464988278845947, 0.021588236403961975]","[0.13071441650390625, 0.1202939823269844, 0.10235227644443512, 0.08428554609417915, 0.06900829821825027, 0.05942189134657383, 0.05216526798903942, 0.04955094866454601, 0.045296477153897285, 0.04312488064169884, 0.04103023372590542, 0.03940921276807785, 0.03789779543876648, 0.03677247650921345, 0.03481323644518852, 0.03437338210642338, 0.03353097755461931, 0.032953400164842606, 0.03334611654281616, 0.03280973248183727, 0.033122261986136436, 0.03333435207605362, 0.03381756879389286, 0.03284751623868942, 0.033926013857126236, 0.032831642776727676, 0.032909102737903595, 0.0329197458922863, 0.03370046801865101, 0.03340652585029602]",0.06743148610893578,0.5659586984367438,0.07635218518253939,0.6293260102960883,0.10581518829673392,0.544373972280949,0.1914430746918053,0.12283034890655152,0.7067451937028059,14.302799807861447,cuda
MITDB,170_MITDB_id_1_Medical_tr_17675_1st_17775,GASF,resnet18_autoencoder_progressive_unfreeze,128,42,42,64,150,0.001,"[0.1345621682703495, 0.10350027183691661, 0.08617057651281357, 0.07292664796113968, 0.06408378295600414, 0.05682140402495861, 0.04961132568617662, 0.0452991866817077, 0.04168945923447609, 0.03969192132353783, 0.03791568552454313, 0.03572008137901624, 0.0336872556557258, 0.03215072210878134, 0.03086912352591753, 0.030363813042640686, 0.029067257108787697, 0.02752571552991867, 0.027012920938432217, 0.026732301339507103, 0.028171043532590073, 0.028175778376559418, 0.02473539983232816, 0.022175107151269913, 0.021372005964318912, 0.020248523602883022, 0.01971926571180423, 0.018724794499576092, 0.01786482147872448, 0.016953921255966026, 0.016261573725690443, 0.015455118535707394, 0.0152958861241738, 0.013788814501216015, 0.013573411696900925, 0.012819578871130943, 0.012758081002781788, 0.012482152786105871, 0.011800559082378944, 0.010528069299956163, 0.010386785337080559, 0.009835350016752878, 0.009641467283169428, 0.009281298921753963, 0.009094800955305496, 0.008946075569838285, 0.008795029018074274, 0.008717031528552374, 0.008406875111783544, 0.007721989726026853, 0.007616780543078979, 0.007441739551723003, 0.007105258138229449, 0.007131522987037897, 0.007251382572576404, 0.007091972511261702, 0.006820721318945289, 0.006541786870608727, 0.0064862054617454605, 0.006209007930010557, 0.006281616166234016, 0.005992387110988299, 0.005969148284445207, 0.0059259986349691944, 0.006345665547996759, 0.005843427109842499, 0.005687417617688577, 0.005533840972930193]","[0.1508954018354416, 0.1294856145977974, 0.0966244786977768, 0.07215356826782227, 0.06108928099274635, 0.05232813581824303, 0.05080674961209297, 0.046835971996188164, 0.04266762360930443, 0.0413165669888258, 0.03905994072556496, 0.0398657713085413, 0.03673770651221275, 0.035599324852228165, 0.034977950155735016, 0.03392837569117546, 0.03434360958635807, 0.034065162762999535, 0.03313380293548107, 0.03507137484848499, 0.03507682681083679, 0.03192969039082527, 0.03131282329559326, 0.029915970750153065, 0.029232331551611423, 0.029001865535974503, 0.02881814446300268, 0.02904699184000492, 0.028464412316679955, 0.028202510438859463, 0.02789194881916046, 0.028695067390799522, 0.027697469107806683, 0.02794564701616764, 0.027736347168684006, 0.028362466022372246, 0.02848453912883997, 0.0277478639036417, 0.028004081919789314, 0.027633413672447205, 0.027547397650778294, 0.026658269576728344, 0.026997175067663193, 0.026855560950934887, 0.02739458717405796, 0.026942855678498745, 0.026998383924365044, 0.026654734276235104, 0.02674442157149315, 0.026412734761834145, 0.026301474310457706, 0.026637045666575432, 0.02618695516139269, 0.026483518071472645, 0.025930735282599926, 0.02615310810506344, 0.02613545022904873, 0.02553473599255085, 0.02651968691498041, 0.026470281183719635, 0.02645763009786606, 0.026083365082740784, 0.02617458626627922, 0.02637968398630619, 0.026147608645260334, 0.025722848251461983, 0.02583920117467642, 0.025959519669413567]",0.04828132661488402,0.4945526006703401,0.059042532745260654,0.5656881847046559,0.09319662840739856,0.43312615400618937,0.0932447130948439,0.10189870826947289,0.6893362043796191,32.6509791938588,cuda
MITDB,170_MITDB_id_1_Medical_tr_17675_1st_17775,GASF,resnet18_autoencoder_differential_lr,128,42,42,64,100,0.001,"[0.1279286394516627, 0.10684977720181148, 0.09078183273474376, 0.07735078160961469, 0.06565014148751895, 0.0579467477897803, 0.053325297931830086, 0.04978341919680437, 0.04687280021607876, 0.046560982863108315, 0.04450442704061667, 0.04297287886341413, 0.040368545800447464, 0.03906354308128357, 0.038802162433664, 0.0366101066271464, 0.03490060195326805, 0.033733521277705826, 0.032998704661925636, 0.03175637871026993, 0.031205636138717335, 0.031199332947532337, 0.02996953980376323, 0.029759183526039124, 0.029675952158868313, 0.030345619035263855, 0.028466166617969673, 0.02828516128162543, 0.027776322327554226, 0.027057521666089695, 0.026342786848545074, 0.024918617991109688, 0.02470133112122615, 0.023460769094526768, 0.024231748344997566, 0.023267259821295738, 0.022333255348106224, 0.022297860433657963, 0.02135635291536649, 0.02075138408690691, 0.020073709699014824, 0.01955508254468441, 0.019468102604150772, 0.01939200423657894, 0.018754461780190468, 0.018195001408457756, 0.018463733606040478, 0.016966612699131172, 0.016758190467953682, 0.015536724589765072, 0.01479757654791077, 0.014856485029061636, 0.014247012479851643, 0.013627548702061176, 0.014518240621934334, 0.012987657760580381, 0.01214987582837542, 0.011226485328127941, 0.01140856510028243, 0.011005533083031574, 0.010209082625806332, 0.009946299872050682, 0.010263897168139616, 0.009400672900180021, 0.00970656688635548, 0.009676641008506218, 0.009136072204758724, 0.008072345284745097, 0.007852753313879171, 0.00774767956075569, 0.007581794091189901, 0.008406528737396002, 0.0075391114223748446, 0.007932369286815325, 0.007649040315300226, 0.007662819776063164, 0.00727687527736028, 0.007293470747147997, 0.006971089246993263, 0.006453945146252711, 0.006138652718315522, 0.006303980791320403, 0.0058166515082120895]","[0.1273273602128029, 0.12789837270975113, 0.11000197380781174, 0.08531039580702782, 0.06775236129760742, 0.05746964178979397, 0.05121484585106373, 0.047864800319075584, 0.04581242613494396, 0.04430740512907505, 0.04235413670539856, 0.04079172946512699, 0.039122238755226135, 0.037690622732043266, 0.03715045005083084, 0.03535222262144089, 0.03408645652234554, 0.03277135267853737, 0.032051313668489456, 0.031138233840465546, 0.03047615196555853, 0.02998667024075985, 0.029404349625110626, 0.029588785953819752, 0.028953006491065025, 0.028991800732910633, 0.028491852805018425, 0.028350302018225193, 0.027940173633396626, 0.027706405147910118, 0.027763482183218002, 0.027415046468377113, 0.027122256346046925, 0.02706946711987257, 0.0265705743804574, 0.026913417503237724, 0.025776094757020473, 0.025678377598524094, 0.0258251978084445, 0.02524408418685198, 0.02523908019065857, 0.024852462112903595, 0.025044605135917664, 0.024346139281988144, 0.02459899988025427, 0.024768820963799953, 0.024337162263691425, 0.02433076500892639, 0.023898270912468433, 0.023834633640944958, 0.022858344949781895, 0.023200616240501404, 0.022662593983113766, 0.022811180911958218, 0.02270911354571581, 0.021777035668492317, 0.021901332773268223, 0.021517529152333736, 0.021733157336711884, 0.0215573376044631, 0.021911120042204857, 0.021847352385520935, 0.021616795100271702, 0.02089823316782713, 0.02079614717513323, 0.021205691620707512, 0.020914769731462002, 0.021025577560067177, 0.020657275803387165, 0.020988773554563522, 0.02078801766037941, 0.020930226892232895, 0.020501254126429558, 0.020647281780838966, 0.020537005737423897, 0.020627444609999657, 0.021058873273432255, 0.020670758560299873, 0.02080443874001503, 0.020787280052900314, 0.021084720268845558, 0.020532801747322083, 0.02046931255608797]",0.04918409097769839,0.5006646774071761,0.06287475963291334,0.5754666272739732,0.09203768069916958,0.44139387539598735,0.10894530360952183,0.09820611884238477,0.6894576213265811,41.99289516918361,cuda
MITDB,170_MITDB_id_1_Medical_tr_17675_1st_17775,GASF,pvt_autoencoder_frozen,128,42,42,64,100,0.001,"[0.12154011180003484, 0.09284106145302455, 0.076358779023091, 0.06537118492027123, 0.05772181289891402, 0.0513882419715325, 0.04787728935480118, 0.04375411942601204, 0.04024583101272583, 0.038636067882180214, 0.03651276665429274, 0.034448677053054176, 0.03348471721013387, 0.03212694668521484, 0.03072197362780571, 0.030033444054424763, 0.029415555919210117, 0.02778482250869274, 0.027024990568558376, 0.026336501973370712, 0.025153548767169315, 0.025359290341536205, 0.023904159975548584, 0.023607012815773487, 0.023431438952684402, 0.022281333804130554, 0.02153359508762757, 0.021177321361998718, 0.020030744684239227, 0.019057741699119408, 0.018557235598564148, 0.017628159063557785, 0.01767301931977272, 0.016792108304798603, 0.01691611638913552, 0.015825823570291202, 0.015250081662088633, 0.015183000514904657, 0.014344853504250446, 0.01332742627710104, 0.013296935707330704]","[0.11996256932616234, 0.11042919382452965, 0.09216433390974998, 0.0728323943912983, 0.05879102647304535, 0.04967438243329525, 0.043934162706136703, 0.04106494411826134, 0.0387856662273407, 0.03757094964385033, 0.03603495843708515, 0.03418430685997009, 0.03394707664847374, 0.03284669853746891, 0.032369352877140045, 0.03169794753193855, 0.03240148909389973, 0.030483147129416466, 0.031085215508937836, 0.02968949917703867, 0.030330840498209, 0.030258124694228172, 0.031226251274347305, 0.02991548553109169, 0.029460452497005463, 0.030146846547722816, 0.029517527669668198, 0.030341033823788166, 0.02958820015192032, 0.030259542167186737, 0.028982442803680897, 0.0305104972794652, 0.02932550758123398, 0.029549009166657925, 0.02996780350804329, 0.029874561354517937, 0.03006917331367731, 0.02998910192400217, 0.02939602918922901, 0.029668739065527916, 0.030834533274173737]",0.06426092774935634,0.5585561280812973,0.07678764190771167,0.6305276348832876,0.10749967008510893,0.535166012138522,0.1784424961320264,0.12175053139862861,0.7170853753714046,20.792720176978037,cuda
MITDB,170_MITDB_id_1_Medical_tr_17675_1st_17775,GASF,pvt_autoencoder_progressive_unfreeze,128,42,42,64,150,0.001,"[0.12941749145587286, 0.10219324752688408, 0.08522246778011322, 0.07090790942311287, 0.0614976491779089, 0.05393815413117409, 0.04701745075484117, 0.04261391920348009, 0.039367095877726875, 0.03658900782465935, 0.034860183174411453, 0.03266713457802931, 0.03238811933745941, 0.03111824548492829, 0.029108598828315735, 0.02910435013473034, 0.02783373494942983, 0.026621813264985878, 0.025170051182309788, 0.024710269023974735, 0.03570904893179735, 0.03389224658409754, 0.031323661717275776, 0.028736584819853306, 0.025791846215724945, 0.02475469869871934, 0.02347064825395743, 0.02137565923233827, 0.0200279476121068, 0.019599837251007557, 0.018611429259181023, 0.017646682138244312, 0.01658685722698768, 0.01536647044122219, 0.01469715436299642, 0.013706233197202286, 0.012881028310706219, 0.012429630383849144, 0.012133998175462088, 0.011132497650881609, 0.011151419176409641, 0.010310125847657522, 0.010064114506045977, 0.010116881225258112, 0.009270282927900553, 0.008532155770808458, 0.008172433202465376, 0.007538907074679931, 0.0070045577983061475, 0.006727823832382758, 0.006480056094005704, 0.006283763175209363, 0.006082777710010608, 0.0059022334559510154, 0.00572166102938354, 0.005605639036123951, 0.0053186809333662195, 0.005209563920895259, 0.0053871845205624895, 0.005310485449930032]","[0.13331838697195053, 0.12159700691699982, 0.0989808589220047, 0.0801142081618309, 0.06040563993155956, 0.04898372106254101, 0.04253876395523548, 0.040224287658929825, 0.03780772350728512, 0.03651917167007923, 0.03477441146969795, 0.03497800976037979, 0.03328985348343849, 0.03267097845673561, 0.03141872491687536, 0.031094612553715706, 0.030998030677437782, 0.03021456766873598, 0.03135519661009312, 0.030022351071238518, 0.04242951050400734, 0.032834798097610474, 0.029827731661498547, 0.02754952758550644, 0.026883063837885857, 0.026095489971339703, 0.025771241635084152, 0.026267276145517826, 0.024803818203508854, 0.024670257233083248, 0.02458023652434349, 0.02395621221512556, 0.02362156193703413, 0.022694715298712254, 0.023344540037214756, 0.023850081488490105, 0.022598285228013992, 0.022678127512335777, 0.022188975475728512, 0.022393605671823025, 0.022424062713980675, 0.02230872679501772, 0.022740988060832024, 0.02255103550851345, 0.02269077207893133, 0.02239058632403612, 0.022281902842223644, 0.022357373498380184, 0.021941572427749634, 0.02162086497992277, 0.022220594808459282, 0.021944238804280758, 0.022126386873424053, 0.021731174550950527, 0.021710487082600594, 0.02221068274229765, 0.021657436154782772, 0.02204685565084219, 0.021768512204289436, 0.021845219656825066]",0.052733434284582464,0.5182170954222082,0.06534532093202074,0.5895615504992712,0.09326632238106199,0.5076103247293922,0.13249819320645584,0.09809943930262939,0.6963431965830668,35.86391443503089,cuda
MITDB,170_MITDB_id_1_Medical_tr_17675_1st_17775,GASF,pvt_autoencoder_differential_lr,128,42,42,64,100,0.001,"[0.12446712702512741, 0.09592476983865102, 0.07892127459247907, 0.06601808468500774, 0.057796370858947434, 0.05227833241224289, 0.04746348659197489, 0.04405557612578074, 0.04128028638660908, 0.03885803744196892, 0.036475530515114464, 0.03564297594130039, 0.03407561592757702, 0.032852236181497574, 0.031887052270273365, 0.03128560290982326, 0.030626223733027775, 0.030035268515348434, 0.029580138934155304, 0.028682051847378414, 0.02852096160252889, 0.02834035673489173, 0.027516258570055168, 0.027408836719890434, 0.02663505543023348, 0.026249689050018787, 0.025415139583249886, 0.0246529762322704, 0.0240659744789203, 0.023714836686849594, 0.023282446277638275, 0.02291180162380139, 0.022761614993214607, 0.021514105300108593, 0.0210978789255023, 0.020828772025803726, 0.020305077234903973, 0.019437032441298168, 0.01934619868795077, 0.019098558463156223, 0.017840193584561348, 0.017331720950702827, 0.016789674293249846, 0.016365469433367252, 0.015856174286454916, 0.015019069270541271, 0.014215088294198116, 0.013763359437386194, 0.012926187987128893, 0.012241650062302748, 0.011662903086592754, 0.010845840908586979, 0.010966836630056301, 0.01096722607811292, 0.010469085071235895, 0.010201659674445787, 0.009403996324787537, 0.009270304658760628, 0.008676311699673533, 0.0086707832912604, 0.00885909671584765, 0.008450722321867943, 0.007712273082385461, 0.0072993664847066, 0.007388435071334243, 0.0069763333691904945, 0.006757017768298586, 0.006548651183644931, 0.00611469941213727, 0.006057152291759849, 0.005903688492253423, 0.005815232405439019, 0.005860181602959831, 0.005508660959700744, 0.005511382982755701, 0.005213672139992316, 0.00492206394361953, 0.005018681287765503]","[0.12837151437997818, 0.10725859552621841, 0.07704507559537888, 0.05948836915194988, 0.05399237759411335, 0.046094728633761406, 0.04490738920867443, 0.04298735409975052, 0.039433492347598076, 0.03739435039460659, 0.036007869988679886, 0.03486138395965099, 0.03380699083209038, 0.03162046987563372, 0.03066188469529152, 0.0301976865157485, 0.02953178994357586, 0.029824656434357166, 0.028702925890684128, 0.0285715963691473, 0.027839284390211105, 0.027944535948336124, 0.026878904551267624, 0.027182776480913162, 0.02631259709596634, 0.02601070422679186, 0.026521182619035244, 0.025547710247337818, 0.02561898250132799, 0.024589912965893745, 0.024358859285712242, 0.024331863969564438, 0.023566105403006077, 0.022783407010138035, 0.022953988052904606, 0.023309738375246525, 0.02309403195977211, 0.022295286878943443, 0.020908096805214882, 0.022690639831125736, 0.020414873026311398, 0.020672326907515526, 0.01965733151882887, 0.020647544413805008, 0.0204374510794878, 0.019804022274911404, 0.019381358288228512, 0.01863877195864916, 0.01792863290756941, 0.017437873408198357, 0.01779259368777275, 0.016448337584733963, 0.01667526876553893, 0.017525468952953815, 0.0172600531950593, 0.01655467599630356, 0.0159432515501976, 0.01589849591255188, 0.015519856940954924, 0.016388187184929848, 0.015618890523910522, 0.01563170924782753, 0.015730741899460554, 0.015037046745419502, 0.014634761959314346, 0.015124756842851639, 0.014456556644290686, 0.014120916835963726, 0.014817843213677406, 0.014455072116106749, 0.014483452774584293, 0.014237929601222277, 0.014869066420942545, 0.01425871066749096, 0.014754062052816153, 0.014506901148706675, 0.014151741284877062, 0.0140412338078022]",0.04887043727468593,0.5095080320320993,0.06281595220754181,0.5853776479703742,0.09297866538896529,0.44641936364463586,0.10567780055857783,0.09292377724433061,0.6903742297839242,50.77803673502058,cuda
MITDB,170_MITDB_id_1_Medical_tr_17675_1st_17775,GADF,cnn_autoencoder,128,42,42,64,150,0.001,"[0.08901504923899968, 0.08035217846433322, 0.07064161077141762, 0.0594769511371851, 0.04921801574528217, 0.04028194646040598, 0.03206472812841336, 0.026365285739302635, 0.021841492503881454, 0.018576386695106823, 0.01612534063557784, 0.01408297335729003, 0.012605220545083284, 0.011637321207672358, 0.010876579210162163, 0.010041694932927689, 0.009216435408840576, 0.008791944477707148, 0.008265457892169556, 0.008058535012726983, 0.007642675967266162, 0.007416271682207783, 0.007100470596924424, 0.007070874950538079, 0.0066918206090728445, 0.0065605488295356435, 0.006384450399006407, 0.006040212387839953, 0.006153532536700368, 0.005854191568990548, 0.0059016388064871235, 0.005776627454906702, 0.00562965606028835, 0.005418327869847417, 0.0052837778348475695, 0.0054956546518951654, 0.005349213412652413, 0.0053971184728046255, 0.004957891146962841, 0.005048202738786737, 0.005050504192089041, 0.004898500240718325, 0.004831770745416482, 0.004694291157647967, 0.0046011079878856736, 0.004684397989573578, 0.004436773636067907, 0.004301322934528192, 0.004317758216833075, 0.004217545269057155, 0.0043386407584572835, 0.004055130993947387, 0.003931374056264758, 0.0038870423256109157, 0.0039994195103645325, 0.003898428442577521, 0.0038337321020662785, 0.0037706017028540373, 0.0036563101845482984, 0.0037711072557916245, 0.003789138592158755, 0.0035639064153656363, 0.0037007839418947697, 0.003626663819886744, 0.0036007811625798545, 0.003504277168152233, 0.0034764585628484688, 0.0034862028745313487, 0.0034685061934093633, 0.003472612239420414, 0.0034942923424144587, 0.0033412619959563017, 0.0032764554489403963, 0.003227759113845726, 0.003371662460267544, 0.0031968677261223397, 0.003100139011318485, 0.0031565268679211536, 0.0030933971672008433, 0.0031172734452411532, 0.0031296093560134373, 0.003034055970298747, 0.0029663947643712163, 0.0030162701926504574, 0.0029558074893429875, 0.002962537342682481, 0.002948311778406302, 0.0028464080144961676, 0.00290259028164049, 0.0027716024002681174, 0.0028290230548009276, 0.002769520001796385, 0.0027384704056506357, 0.0027005336014553905, 0.0027279487112537026, 0.002708500910860797, 0.0026756024065737924, 0.0026784207050999007, 0.0025899717196201286, 0.0025873354946573577, 0.002570351973796884, 0.002584713938025137, 0.0026066295880203447, 0.00263960442195336, 0.002672158220472435, 0.0025388005888089538, 0.002530318219214678, 0.0025303743313997984, 0.002518000236401955, 0.002472090612476071, 0.0025068571946273246, 0.002391981581846873, 0.0024724105605855584, 0.0024697966097543636, 0.0024511143565177917, 0.002480392111465335, 0.002454825754587849, 0.002487862560277184, 0.0024669166887179017, 0.0024667398150389395, 0.0024478446769838533, 0.002404124243184924]","[0.08431682735681534, 0.0827561654150486, 0.07647678256034851, 0.06282561644911766, 0.0492125004529953, 0.037765249609947205, 0.02808556705713272, 0.018646069802343845, 0.015341994352638721, 0.014143500942736864, 0.013088019099086523, 0.012041827198117971, 0.011251721531152725, 0.010314378421753645, 0.009936014655977488, 0.009520330466330051, 0.009064356796443462, 0.008936566766351461, 0.00833231513388455, 0.008021794725209475, 0.007893257075920701, 0.007637693081051111, 0.0073236331809312105, 0.00729398219846189, 0.006997824879363179, 0.006828799843788147, 0.006749454652890563, 0.006617922335863113, 0.006497201742604375, 0.006355855846777558, 0.0063300528563559055, 0.006089021684601903, 0.005962672410532832, 0.0058692635502666235, 0.005810267757624388, 0.0058583421632647514, 0.005759951425716281, 0.005670461803674698, 0.005633162334561348, 0.0056224598083645105, 0.005525062093511224, 0.005501091713085771, 0.005405225791037083, 0.005289838183671236, 0.005232507362961769, 0.005335269495844841, 0.004922285908833146, 0.004913921933621168, 0.004842820577323437, 0.004777736961841583, 0.00464523583650589, 0.004569623619318008, 0.004535211017355323, 0.004502972587943077, 0.004484000150114298, 0.0043682672549039125, 0.00441957451403141, 0.004346716683357954, 0.004297282546758652, 0.0043881775345653296, 0.004238421679474413, 0.004240165115334094, 0.004208281985484064, 0.004251712583936751, 0.004222100600600243, 0.004192473599687219, 0.004119466175325215, 0.004158374387770891, 0.004168086219578981, 0.004154446651227772, 0.004119151039049029, 0.00409762526396662, 0.0040907710790634155, 0.004048029659315944, 0.003999455715529621, 0.004022667650133371, 0.00396706024184823, 0.0038882570806890726, 0.003841857658699155, 0.003908468061126769, 0.0037734322249889374, 0.0038099969970062375, 0.003748212940990925, 0.0037424357142299414, 0.0036892472999170423, 0.0036579183069989085, 0.0036470001796260476, 0.003598643816076219, 0.0036234394647181034, 0.0036239888286218047, 0.003595194430090487, 0.003567662090063095, 0.003486239700578153, 0.0035227491753175855, 0.00340965180657804, 0.003393633523955941, 0.003409955999813974, 0.0034111107233911753, 0.00329720601439476, 0.003299098229035735, 0.003278421238064766, 0.0033005746081471443, 0.0032786332303658128, 0.0033055362291634083, 0.003252302180044353, 0.0032125989673659205, 0.0031826685881242156, 0.0031802098965272307, 0.0031550107523798943, 0.0031605417607352138, 0.003114642109721899, 0.0031744560692459345, 0.0031739540863782167, 0.0032222652807831764, 0.0031914664432406425, 0.003140280954539776, 0.003085108008235693, 0.0031635268824175, 0.0031153076561167836, 0.003134471829980612, 0.0031624214025214314, 0.0031194622861221433]",0.038254357075351,0.4314267027198693,0.04969513077070471,0.5103858174113289,0.09111103843589516,0.3206286023261968,0.09079724209620169,0.11094669250961986,0.6890674908495287,45.32617497909814,cuda
