dataset,file_path,ts2i_transformation_pretty_name,model,latent_dim,window_length,stride,image_size,epochs,learning_rate,train_losses,val_losses,AUC_PR,AUC_ROC,VUS_PR,VUS_ROC,Standard_F1,PA_F1,Event_F1,R_F1,Affiliation_F,training_time_s,device
MITDB,172_MITDB_id_3_Medical_tr_27274_1st_27374,RN,cnn_autoencoder,128,37,37,64,150,0.001,"[0.19914158135652543, 0.18176351934671403, 0.16860246658325195, 0.15759959518909455, 0.1480460897088051, 0.13931862115859986, 0.13171934634447097, 0.12414724975824357, 0.11738705337047577, 0.11118511632084846, 0.10506472885608673, 0.09950630515813827, 0.09401793330907822, 0.0887475736439228, 0.08377968221902847, 0.07880310043692589, 0.0742139309644699, 0.06974203959107399, 0.06579477787017822, 0.06211289204657078, 0.05810147002339363, 0.05449797101318836, 0.05132751874625683, 0.04820487424731255, 0.04530249498784542, 0.04248018674552441, 0.03972637839615345, 0.03705467060208321, 0.03464560247957706, 0.032430825382471086, 0.03058750443160534, 0.028860385715961456, 0.02716090753674507, 0.02568821478635073, 0.02427790444344282, 0.022877301089465618, 0.02177177108824253, 0.020798607729375362, 0.01992379389703274, 0.018746683187782765, 0.017849726416170598, 0.017087150923907758, 0.01691935006529093, 0.016146295052021743, 0.015182837564498185, 0.014498675800859928, 0.013753552176058292, 0.01299430700019002, 0.012257775757461786, 0.011837813537567854, 0.011473291646689176, 0.011348481196910143, 0.01116177560761571, 0.010716139804571867, 0.010379044897854328, 0.010017935652285814, 0.009575150161981582, 0.009191800188273192, 0.00894983122125268, 0.008742931112647057, 0.00869255056604743, 0.00862405151128769, 0.008295839047059416, 0.00816631456837058, 0.008015227084979416, 0.007872578175738453, 0.007942386576905847, 0.007582370890304446, 0.007277679955586791, 0.006960067246109247, 0.006720885401591659, 0.006513372110202908, 0.006653567496687174, 0.006584748765453697, 0.006392806442454458, 0.006381219392642379, 0.006501390133053064, 0.00649343547411263, 0.006444913102313876, 0.006316224066540599, 0.006404847325757146, 0.005986088747158646, 0.0057491309009492396, 0.005692586349323392, 0.005679515469819307, 0.005559343937784433, 0.005274406401440501, 0.005101894820109009, 0.005033911066129803, 0.00478946934454143, 0.004861950501799583, 0.004899780126288533, 0.005091919004917145, 0.005156919453293085, 0.005360772041603923, 0.00491696186363697, 0.004341298248618841, 0.004056311585009098, 0.0039061995223164557, 0.0037615204695612193, 0.003677034797146916, 0.0036337882978841663, 0.0035697214072570203, 0.003530286275781691, 0.0035043602576479314, 0.003478065924718976, 0.003487736452370882, 0.003456072090193629, 0.0034223935101181267, 0.003444586996920407, 0.003451328072696924, 0.0034678706899285315, 0.003402028139680624, 0.00339965324383229, 0.0033419199753552675, 0.0033407204784452913, 0.003294374095275998, 0.0032693664310500027, 0.0032782011199742555, 0.0032744080293923617, 0.0032513512764126063, 0.0032039126148447395, 0.0031807982129976155, 0.003195172967389226, 0.003140829876065254, 0.0030976146925240757, 0.0031583351315930485, 0.0031289834994822742, 0.0031420665327459574, 0.003108207928016782, 0.00307880740147084, 0.003079682937823236, 0.0030370043125003575, 0.003003665735013783, 0.0030260266736149787, 0.003030426986515522, 0.0029774681432172658, 0.003006127569824457, 0.0030209821416065097, 0.00306601719930768, 0.0030013849260285496, 0.002966661658138037, 0.0029813265427947044, 0.0029586619231849907, 0.002942589530721307, 0.0029011388309299947, 0.0029102270491421223, 0.002938480768352747, 0.002863841084763408, 0.0029092577984556555]","[0.19777982433636984, 0.1899902174870173, 0.17519823213418326, 0.15885944167772928, 0.14606175820032755, 0.13602962096532187, 0.12827997406323752, 0.12058863043785095, 0.11393500367800395, 0.10767758637666702, 0.1024606004357338, 0.09627105295658112, 0.09111011524995168, 0.08587818592786789, 0.08131833374500275, 0.07645067572593689, 0.07179060329993565, 0.06757229566574097, 0.06438266734282176, 0.05955404539903005, 0.05597306787967682, 0.052876729518175125, 0.049843546003103256, 0.04700371250510216, 0.044028362880150475, 0.04101512208580971, 0.038299971570571266, 0.036067126939694084, 0.033758352200190224, 0.03196468328436216, 0.030108471711476643, 0.028529370824495952, 0.02693392150104046, 0.025337239106496174, 0.02401519939303398, 0.022556144123276074, 0.021413858979940414, 0.02078622269133727, 0.019729474559426308, 0.018479968110720318, 0.01781838821868102, 0.01757500444849332, 0.017333007728060085, 0.01581567774216334, 0.015003228870530924, 0.014181781560182571, 0.013614939836164316, 0.01276427103827397, 0.012322460611661276, 0.012090124810735384, 0.011617865723868212, 0.011440692779918512, 0.01113845749447743, 0.011249283018211523, 0.010348844031492868, 0.009977166851361593, 0.009681100957095623, 0.009232860058546066, 0.009223933331668377, 0.008977704991896948, 0.008810576672355333, 0.008657616252700487, 0.008438482880592346, 0.00831997146209081, 0.008048712275922298, 0.008342488668859005, 0.007865732225279013, 0.0077859194328387575, 0.007369281879315774, 0.0071252258494496346, 0.006823658322294553, 0.006823486027618249, 0.0067330508803327875, 0.006803965972115596, 0.006688851087043683, 0.0064095077104866505, 0.006665313461174567, 0.0066192420199513435, 0.006468485885610183, 0.00679596917082866, 0.006240223068743944, 0.006128399477650722, 0.006139567121863365, 0.006071630244453748, 0.00605285307392478, 0.005742731659362714, 0.0054091888790329294, 0.005200087868918975, 0.005032958462834358, 0.005173086343954007, 0.005163101479411125, 0.005565639430036147, 0.005344203673303127, 0.005371132244666417, 0.005530730045090119, 0.00476659353201588, 0.004349670683344205, 0.004125877904395263, 0.004036996358384688, 0.003907033087064822, 0.003837469887609283, 0.0037949761220564446, 0.003758060901115338, 0.0036966336580614247, 0.0036812484419594207, 0.003671014914289117, 0.0036578484966109195, 0.003648012255628904, 0.00359445926733315, 0.0035902912883708873, 0.003631139639765024, 0.003577159640068809, 0.003520338019977013, 0.0035296056885272264, 0.0034886711897949376, 0.0034685767410943904, 0.0035113279397288957, 0.003421700792387128, 0.003412859281525016, 0.0033953468470523753, 0.0034422738632808128, 0.0034193691487113633, 0.003400498302653432, 0.003295321405554811, 0.003283119217182199, 0.003297883551567793, 0.00330305223663648, 0.003229309261466066, 0.0033101218286901712, 0.0032595747616142035, 0.0032212043491502604, 0.0031832398381084204, 0.003201731868709127, 0.0031796169156829515, 0.003190806368365884, 0.003124956196794907, 0.0030771142337471247, 0.0031409995475163064, 0.0031996258379270635, 0.0031513449115057788, 0.0031161482135454812, 0.0031438557586322227, 0.00307373881029586, 0.0030763203588624797, 0.0030427382638057074, 0.0029757010440031686, 0.003067226381972432, 0.003007119599108895, 0.0030633433101077876, 0.002972590426603953]",0.02177953460506283,0.3651953775091033,0.02608126643652278,0.3466445483646227,0.056614401619166414,0.1302095676608999,0.056565877428624914,0.05766832844166685,0.6805404284894188,85.94036903209053,cuda
MITDB,172_MITDB_id_3_Medical_tr_27274_1st_27374,RN,resnet18_autoencoder_frozen,128,37,37,64,100,0.001,"[0.19827864170074463, 0.18351488709449768, 0.17344546169042588, 0.16643448024988175, 0.16232323199510573, 0.160174198448658, 0.15903289318084718, 0.1584284707903862, 0.1581948310136795, 0.15787483602762223, 0.1576925590634346, 0.1575251117348671, 0.15721170008182525, 0.15693275928497313, 0.15655578076839446, 0.15586718916893005, 0.15468523651361465, 0.15205454379320144, 0.14665977656841278, 0.13883618116378785, 0.1287711441516876, 0.11693313643336296, 0.10498438999056817, 0.09394029676914215, 0.08300326243042946, 0.07421344220638275, 0.06472107023000717, 0.05655326098203659, 0.049568166956305504, 0.04373782984912396, 0.04010443948209286, 0.03458835445344448, 0.029615626484155656, 0.027887221053242685, 0.025186827406287193, 0.021328440681099892, 0.01812070794403553, 0.016007312573492527, 0.014133116509765387, 0.012509926036000252, 0.011900204233825207, 0.011280687246471643, 0.010303542576730251, 0.009602333605289459, 0.009443102218210698, 0.009524095058441161, 0.009020546823740006, 0.00859243916347623, 0.008154090400785208, 0.007689453382045031, 0.007747275708243251, 0.007603618176653981, 0.00770556484349072, 0.007513630855828524, 0.007344507006928324, 0.0076352701988071205, 0.007101462641730905, 0.006722425296902657, 0.006201581284403801, 0.005976045969873667, 0.005718449363484979, 0.005997347133234143, 0.006385703152045607, 0.006662291334941983, 0.006536994734779001, 0.005980297829955817, 0.0057907997164875265, 0.005308325542137027, 0.004798180004581809, 0.004594510630704462, 0.0047123617958277466, 0.004371789563447237, 0.004102065064944327, 0.003926312737166882, 0.004122581658884883, 0.0040064946515485644, 0.003859657538123429, 0.003814345179125667, 0.003760153241455555, 0.0037993980571627618, 0.004122436931356788, 0.003870882629416883, 0.004164074547588825, 0.004091250989586115, 0.0037986103678122165, 0.003641046304255724, 0.0036723846569657326, 0.003594668046571314, 0.003688852395862341, 0.003523085452616215, 0.0036470938939601183, 0.003757069678977132, 0.003678150032646954, 0.003458322864025831, 0.0033948974451050162, 0.003390816319733858, 0.00347695779055357, 0.0035168573958799243, 0.003318489738740027, 0.0032936636358499526]","[0.1903744488954544, 0.18566749493281046, 0.17449378470579782, 0.1657529224952062, 0.16173041860262552, 0.15986054142316183, 0.1589177499214808, 0.15841486056645712, 0.15816772480805716, 0.1579408198595047, 0.15780014296372732, 0.15758140881856283, 0.15740806857744852, 0.15720921258131662, 0.15703358749548593, 0.1571126083532969, 0.1565414915482203, 0.15497609972953796, 0.15032482147216797, 0.14159305890401205, 0.12857934832572937, 0.11415617416302364, 0.10146745294332504, 0.08982570221026738, 0.07914486279090245, 0.07038428137699763, 0.061196219176054, 0.0536706472436587, 0.04642579331994057, 0.041694135715564094, 0.036975931376218796, 0.03237155576546987, 0.02771172362069289, 0.025880487635731697, 0.0232483372092247, 0.019369443878531456, 0.01675446890294552, 0.015109498053789139, 0.013101534297068914, 0.011830943636596203, 0.01142106888194879, 0.010613883845508099, 0.009673336210350195, 0.009165056049823761, 0.009192706396182379, 0.008760397943357626, 0.008267168886959553, 0.008140591283639273, 0.007921626480917135, 0.00741513508061568, 0.007237651230146487, 0.007481724179039399, 0.007104976723591487, 0.006906451657414436, 0.006904147410144408, 0.007145925735433896, 0.0066375395593543845, 0.006310710217803717, 0.0058780089020729065, 0.005696677758047978, 0.00542446489756306, 0.0057684808659056825, 0.006178203504532576, 0.006363807866970698, 0.006087173707783222, 0.005643032491207123, 0.005659008088211219, 0.004579967353492975, 0.004285465770711501, 0.004153707219908635, 0.004023662613083919, 0.003937768749892712, 0.003828262366975347, 0.0036272151240458093, 0.003698062850162387, 0.0037675125834842524, 0.003615740376214186, 0.0035217220429331064, 0.0034814370640863976, 0.0035423579004903636, 0.003466401482000947, 0.003667521523311734, 0.0037734517051527896, 0.003761783940717578, 0.003558178199455142, 0.003398561772579948, 0.0033366056935240826, 0.0032791790241996446, 0.00338198725755016, 0.0033498307845244804, 0.00329151206339399, 0.0034640703039864698, 0.0032523786649107933, 0.003153432005395492, 0.0030517857521772385, 0.003134401049464941, 0.0030946588764588037, 0.0030917262192815542, 0.003244156794001659, 0.0030746435125668845]",0.023737162836121768,0.3623525823957946,0.027412643222611388,0.341651537186602,0.05651633892977636,0.31605463745141044,0.09242301756448862,0.13462296950916638,0.6805980500932699,77.44380083004944,cuda
MITDB,172_MITDB_id_3_Medical_tr_27274_1st_27374,RN,resnet18_autoencoder_progressive_unfreeze,128,37,37,64,150,0.001,"[0.18845690339803695, 0.166817769408226, 0.15983840823173523, 0.15592050105333327, 0.14927107691764832, 0.1384994015097618, 0.12671224176883697, 0.11515578925609589, 0.10517656058073044, 0.09612828865647316, 0.08718007728457451, 0.07701127529144287, 0.06872202754020691, 0.06045839563012123, 0.05340417735278606, 0.047137423604726794, 0.041633502766489985, 0.036185864731669425, 0.03140138052403927, 0.028227165900170804, 0.0430317148566246, 0.028225052542984484, 0.02170913089066744, 0.017891929671168327, 0.015238475147634744, 0.013145131524652243, 0.011750949639827013, 0.010351491719484329, 0.009630430117249488, 0.009061876125633717, 0.00878722509369254, 0.008049277495592833, 0.007566872052848339, 0.007369559910148382, 0.007121833087876439, 0.007128356629982591, 0.007580758025869727, 0.007441105740144849, 0.006799905933439732, 0.006337677733972669, 0.006302752625197172, 0.005818318342790008, 0.005461385520175099, 0.005045783799141645, 0.004790741903707385, 0.004861017782241106, 0.004877260560169816, 0.004752805782482028, 0.004413526458665729, 0.004364701081067323, 0.004417760134674609, 0.0042742344085127115, 0.004252910939976573, 0.004637003317475319, 0.004614170361310244, 0.004613334871828556, 0.004400212457403541, 0.004304711241275072, 0.0037028605584055185, 0.003241850482299924, 0.00303546697832644, 0.0028528797440230845, 0.002832548669539392, 0.0029616741696372626, 0.0028743622824549675, 0.002842418965883553, 0.002838207292370498, 0.002886505983769894, 0.0027440863428637385, 0.002628950751386583, 0.002526975004002452, 0.0025262651033699512, 0.002472525485791266, 0.0024763701250776647, 0.002496459102258086, 0.002532425173558295, 0.002516059298068285, 0.0025983330328017474, 0.002448143111541867, 0.0024375223089009523, 0.00263710783328861, 0.0027362868888303636, 0.0026275515090674164, 0.002539774100296199, 0.002275081514380872, 0.0022255712654441597, 0.002129925787448883, 0.002276841865386814, 0.0022555581759661435, 0.0021664842031896116, 0.0021629955153912306, 0.002039106481242925, 0.0019651832873933016, 0.0019933311850763857, 0.002111174480523914, 0.00201028804294765, 0.002048153732903302, 0.00200362236937508, 0.0019858442596159876, 0.0019457852933555842, 0.001901814667508006, 0.0019085997832007707, 0.001946221897378564, 0.0020613275351934134]","[0.18864689767360687, 0.16914798816045126, 0.16075889766216278, 0.15908202528953552, 0.15755710502465567, 0.14893721540768942, 0.12909148136774698, 0.11196137219667435, 0.10085190335909526, 0.09139524400234222, 0.08201181143522263, 0.07285832117001216, 0.06485743075609207, 0.05684226502974828, 0.05033906797568003, 0.044217719386021294, 0.038874550412098564, 0.033941286305586495, 0.029844296475251515, 0.02612182932595412, 0.03598690529664358, 0.024175069605310757, 0.019694392879803974, 0.016629233335455258, 0.014406816413005194, 0.012618540786206722, 0.011332132232685884, 0.010046954887608687, 0.009380693547427654, 0.00941629863033692, 0.008542814292013645, 0.00800498683626453, 0.007760318927466869, 0.007365177075068156, 0.007000810777147611, 0.007356155974169572, 0.008043549644450346, 0.007036205846816301, 0.006810759659856558, 0.006322108209133148, 0.005968152234951655, 0.005900326340148847, 0.0055593882376948995, 0.0047156244205931825, 0.004894073897351821, 0.004802013126512368, 0.004846400426079829, 0.004599913489073515, 0.00462005070100228, 0.004510879050940275, 0.004443495534360409, 0.004285712726414204, 0.004507383642097314, 0.004851735197007656, 0.004585042751083772, 0.004414593800902367, 0.004309945118923982, 0.004378652820984523, 0.00328036118298769, 0.003067893053715428, 0.002859777848546704, 0.0027366936362038055, 0.002741170891871055, 0.002775391020501653, 0.002717350609600544, 0.002720275971417626, 0.002674852885926763, 0.0026959541719406843, 0.002642487951864799, 0.0024812103559573493, 0.0024753063917160034, 0.002411588250348965, 0.0024363327150543532, 0.002440701782082518, 0.0024021653613696494, 0.002458952677746614, 0.0023826636218776307, 0.0023577375492701926, 0.0024138205529501042, 0.002373441898574432, 0.0024801911786198616, 0.002635054290294647, 0.0025912646669894457, 0.002506483035782973, 0.0021357619358847537, 0.002006050975372394, 0.001983662873196105, 0.0020176322432234883, 0.002035109132217864, 0.001973357517272234, 0.001994369512734314, 0.0019474610065420468, 0.0019133806151027481, 0.0018843536187584202, 0.0019350037133942048, 0.0019588319895168147, 0.0018917536751056712, 0.0019006659276783466, 0.0019023752150436242, 0.0018521540720636647, 0.0018157220135132472, 0.0018169560159246128, 0.0018037846699977915, 0.0019149546278640628]",0.025090278645740795,0.37628865345703627,0.028058902835271477,0.35375118726178173,0.05651633892977636,0.3032264145015865,0.08714596949891025,0.46808507762716234,0.6792824218018779,76.55891251284629,cuda
MITDB,172_MITDB_id_3_Medical_tr_27274_1st_27374,RN,resnet18_autoencoder_differential_lr,128,37,37,64,100,0.001,"[0.19298603981733323, 0.18141186833381653, 0.17129213660955428, 0.16467907279729843, 0.16135417968034743, 0.15938035845756532, 0.1582224875688553, 0.15770311057567596, 0.1573334589600563, 0.15715062171220778, 0.1558119013905525, 0.15448655933141708, 0.15143529027700425, 0.1482856810092926, 0.1432003363966942, 0.1351953238248825, 0.12523600459098816, 0.11109413877129555, 0.09732565954327584, 0.08458278402686119, 0.0725523665547371, 0.062293071299791336, 0.05340724773705006, 0.04569536633789539, 0.038766857236623764, 0.03401874043047428, 0.02984148282557726, 0.02560159023851156, 0.021830635145306587, 0.0190132450312376, 0.01708386596292257, 0.015357725787907839, 0.014038280956447125, 0.013550679571926594, 0.012602491863071918, 0.011643511150032282, 0.010456707607954741, 0.010083012096583844, 0.010092958994209766, 0.009814013540744782, 0.008981314208358526, 0.008631679136306048, 0.008929734723642469, 0.008321605017408728, 0.007418755022808909, 0.007302048290148378, 0.00764153734780848, 0.007659864844754338, 0.006625053100287914, 0.006022902857512236, 0.005816092155873776, 0.00553581714630127, 0.005224606627598405, 0.005115374363958836, 0.0054859877564013, 0.005675629014149308, 0.005506824515759945, 0.00537362894974649, 0.005076472600921989, 0.005573365371674299, 0.005977174546569586, 0.005931067932397127, 0.006079253926873207]","[0.18747462332248688, 0.17987889051437378, 0.16877909998099008, 0.16267892718315125, 0.16077850262324014, 0.15903679529825845, 0.15815906723340353, 0.15776678919792175, 0.1577006975809733, 0.15731031199296316, 0.15682480235894522, 0.15597867468992868, 0.15438547233740488, 0.1513961354891459, 0.14668760200341543, 0.13957821826140085, 0.12749036898215613, 0.1123046725988388, 0.09714140743017197, 0.08421187351147334, 0.07122314224640529, 0.06123068059484164, 0.05193314949671427, 0.04544880365331968, 0.03754260390996933, 0.03334771220882734, 0.02888311507801215, 0.0242158230394125, 0.021583470205465954, 0.018215299894412357, 0.016339258290827274, 0.015331934206187725, 0.013713114274044832, 0.013553658500313759, 0.012328851347168287, 0.011063244504233202, 0.010224665515124798, 0.010567111273606619, 0.01029600047816833, 0.009470344831546148, 0.00873543880879879, 0.008716251080234846, 0.008242059188584486, 0.007943411823362112, 0.0072578432348867255, 0.007187675995131333, 0.0077444651784996195, 0.007217039664586385, 0.006346648869415124, 0.005778003018349409, 0.005654970028748115, 0.0053872048544387026, 0.0051729924355943995, 0.005132511568566163, 0.005470216895143191, 0.0055074794217944145, 0.005431383072088162, 0.005164812008539836, 0.005075773069014152, 0.005769908428192139, 0.006201579390714566, 0.005856689220915238, 0.005938566134621699]",0.022045845531194853,0.34953067753152256,0.027077454791022554,0.34022616021737667,0.05656532777368422,0.22793089674455763,0.056565877428624914,0.20143647390713285,0.6809133487896313,48.75485068419948,cuda
MITDB,172_MITDB_id_3_Medical_tr_27274_1st_27374,RN,pvt_autoencoder_frozen,128,37,37,64,100,0.001,"[0.19967655837535858, 0.17885228842496873, 0.1689603090286255, 0.1634018525481224, 0.16059526950120925, 0.15915158540010452, 0.15841048508882521, 0.15780556946992874, 0.1575044348835945, 0.15704318284988403, 0.1566095232963562, 0.15584101974964143, 0.1540541797876358, 0.15060327500104903, 0.14400553703308105, 0.1347230076789856, 0.12286803349852563, 0.1091267667710781, 0.09617900028824806, 0.083934336155653, 0.07488829270005226, 0.0644925992935896, 0.055456743016839026, 0.048348060622811315, 0.042224157229065896, 0.03641376905143261, 0.03263252936303616, 0.028971129097044468, 0.025447779893875123, 0.022338266484439373, 0.020023428462445737, 0.018265450187027455, 0.016073566302657126, 0.014642577338963746, 0.013789779506623745, 0.012716078199446201, 0.011985439900308847, 0.010992524027824403, 0.010454425774514674, 0.009830714296549558, 0.009404413495212793, 0.009299792908132076, 0.008421416813507675, 0.008258727332577109, 0.00807918207719922, 0.007615716848522425, 0.00740109016187489, 0.007147617870941758, 0.007113616308197379, 0.0068895738571882244, 0.006626043794676661, 0.006653100205585361, 0.006846500700339675, 0.006512894667685032, 0.0061559104826301335, 0.006396521162241697, 0.006239551724866033, 0.0059604976326227185, 0.0055413404013961555, 0.005339559866115451, 0.005562244495376944, 0.005217483639717102, 0.0051261202432215216, 0.005332558182999492, 0.005241350689902902, 0.005109510477632284, 0.005000304663553834, 0.004851323878392577, 0.004880475578829646, 0.004936137469485402, 0.004830915294587612, 0.004834665870293975, 0.0046404976397752765, 0.004544433206319809, 0.004457781137898564, 0.004140528594143688, 0.004224983602762222, 0.004187617730349302, 0.003940533474087715, 0.0039191152667626735, 0.004006677586585283, 0.003922207816503942, 0.003926806035451591, 0.004189404053613543, 0.003968357248231769, 0.0037742983317002655, 0.003719164035283029, 0.0037971741054207086, 0.003806753270328045, 0.003783747274428606, 0.0038144798250868916, 0.003579111839644611, 0.003495944826863706, 0.0035675073275342585, 0.0035502239130437373, 0.0034093422815203666, 0.0031893546227365734, 0.003243279946036637, 0.003591242292895913, 0.0034322261344641447]","[0.1957624852657318, 0.18052715063095093, 0.16787310938040415, 0.16209745407104492, 0.15976202487945557, 0.15870420138041177, 0.15811921656131744, 0.1577272266149521, 0.1574764847755432, 0.15726898610591888, 0.15727156400680542, 0.15713403622309366, 0.15640796224276224, 0.1541445404291153, 0.14850225547949472, 0.13751495877901712, 0.12289681782325108, 0.10897667457660039, 0.09500292191902797, 0.08485112339258194, 0.07401784012715022, 0.06413189321756363, 0.055750831961631775, 0.04873529449105263, 0.04236821457743645, 0.03733207782109579, 0.033656264344851174, 0.029048873111605644, 0.025766751418511074, 0.022671008482575417, 0.021175557747483253, 0.01833677478134632, 0.01648601796478033, 0.015207748239239057, 0.014363676309585571, 0.013610878338416418, 0.012171027561028799, 0.011349494569003582, 0.010684653495748838, 0.01005600392818451, 0.0096574816852808, 0.009075264756878218, 0.008593526358405748, 0.008538532691697279, 0.008226032213618359, 0.008000750094652176, 0.007666165319581826, 0.007531964220106602, 0.007039966216931741, 0.006935584203650554, 0.007118089124560356, 0.007124030962586403, 0.006705626845359802, 0.006577217485755682, 0.00636653679733475, 0.00646952074021101, 0.006261167737344901, 0.006108502081284921, 0.005613566065828006, 0.005846884412070115, 0.005573358541975419, 0.0055105555802583694, 0.005374119306604068, 0.0053923890615503, 0.00537365007524689, 0.005356370626638333, 0.005025946690390508, 0.005083703901618719, 0.0048499346400300665, 0.004907234261433284, 0.004867240786552429, 0.004938117228448391, 0.00467715257157882, 0.004662358667701483, 0.004389292094856501, 0.0042650632870694, 0.004349390976130962, 0.0040912211406975985, 0.004117543110623956, 0.0040246841963380575, 0.004138187660525243, 0.003988884311790268, 0.004239046325286229, 0.004170188447460532, 0.0040035187266767025, 0.00387006183154881, 0.004011064845447739, 0.004029934760183096, 0.003911682947849234, 0.003989161845917503, 0.0038484901500244937, 0.0037801044527441263, 0.003745544313763579, 0.0036682361581673226, 0.0035853350224594274, 0.003365754537905256, 0.0033876701102902493, 0.0036313414263228574, 0.00360234547406435, 0.003632358042523265]",0.02015532609247162,0.3166267540188734,0.024992471667665488,0.30533690057415924,0.056547785541765656,0.2005980883189315,0.05645356528693006,0.13462296950916638,0.6805980500932699,77.4168162420392,cuda
MITDB,172_MITDB_id_3_Medical_tr_27274_1st_27374,RN,pvt_autoencoder_progressive_unfreeze,128,37,37,64,150,0.001,"[0.18713863343000411, 0.1713081568479538, 0.16504452079534532, 0.1617372840642929, 0.1598604217171669, 0.15894415676593782, 0.15839782804250718, 0.15807859003543853, 0.1579568013548851, 0.15778045505285263, 0.15770399421453477, 0.15737420916557313, 0.15715166330337524, 0.15676365792751312, 0.15607275515794755, 0.1546383246779442, 0.15122036635875702, 0.1448027566075325, 0.13453010767698287, 0.12101745083928109, 0.16069866716861725, 0.15828700512647628, 0.15697540193796158, 0.15591349601745605, 0.15453775674104692, 0.15113997906446458, 0.14398253709077835, 0.12992950081825255, 0.11180536523461342, 0.09455166757106781, 0.07931138724088668, 0.06610934063792229, 0.05454839281737804, 0.04595970809459686, 0.038858971744775775, 0.03259585052728653, 0.02911063563078642, 0.024431730434298516, 0.020718084648251534, 0.01800577249377966, 0.01618643309921026, 0.014897871669381857, 0.013532615266740322, 0.012346603628247976, 0.011331824492663145, 0.010547174513339997, 0.009998093545436858, 0.009454272594302893, 0.00852024657651782, 0.008131625689566135, 0.007723412988707423, 0.007499928679317236, 0.007557265879586339, 0.007328832522034645, 0.007223831489682198, 0.0070600233972072605, 0.00687596327625215, 0.006948400894179941, 0.006598039902746678, 0.006465332303196192, 0.006345532974228263, 0.006089517194777727, 0.006072175921872258, 0.005752521334215999, 0.005631862441077828, 0.005500594154000282, 0.005659219436347484, 0.005885814968496561, 0.005626225378364325, 0.005218213563784957, 0.005216475017368794, 0.0050750083290040495, 0.005193073535338044, 0.005088278464972973, 0.004917641310021282, 0.004864980140700937, 0.0048557767178863285, 0.004966433113440871, 0.004895539255812764, 0.005222761118784547, 0.005218546837568283, 0.004875520244240761, 0.004778810730203986, 0.004423211561515927, 0.004120782855898142, 0.0042450105305761095, 0.00417953790165484, 0.004146909574046731, 0.0042172371409833435, 0.0041774301789700985, 0.004292228817939758, 0.0042669643647968766, 0.004111882671713829, 0.004152362491004169, 0.0037497935350984334, 0.0033800855046138166, 0.0031403035391122103, 0.0031248901737853884, 0.0029979565180838106, 0.0030438665999099612, 0.0030328853288665416, 0.0030581357423216105, 0.0031136536272242665, 0.003023747424595058, 0.0030523242661729456, 0.0028992372564971445, 0.0028768490068614484, 0.0028872477589175103, 0.0029629885917529463]","[0.1808172365029653, 0.17193534473578134, 0.16525750855604807, 0.16143169502417246, 0.15948744614919028, 0.1586592843135198, 0.15828323364257812, 0.15804654359817505, 0.15790980557600656, 0.15781564017136893, 0.15776391327381134, 0.15790143112341562, 0.15813087423642477, 0.15832137564818063, 0.15809679528077444, 0.15759044388930002, 0.1556039402882258, 0.1491390516360601, 0.13782631357510886, 0.12402570992708206, 0.17777700225512186, 0.16033680737018585, 0.15704925855000815, 0.15708905955155691, 0.15485070645809174, 0.15263377130031586, 0.14537253975868225, 0.129942258199056, 0.1119980663061142, 0.09462839861710866, 0.07943802326917648, 0.06658814350763957, 0.055690536896387734, 0.046919215470552444, 0.039046199371417366, 0.03419165809949239, 0.029496068134903908, 0.024806460365653038, 0.02150203473865986, 0.018787570918599766, 0.016941102221608162, 0.015678084765871365, 0.014079426415264606, 0.013081158511340618, 0.012022008498509726, 0.011058594100177288, 0.010619046476980051, 0.009563878799478212, 0.009025614708662033, 0.008593869085113207, 0.008276628951231638, 0.008084845418731371, 0.008112516098966202, 0.007722441417475541, 0.007468820704768102, 0.007266656185189883, 0.007105306722223759, 0.006943808402866125, 0.007203198503702879, 0.006727499111245076, 0.006694222645213206, 0.006465722651531299, 0.006375021766871214, 0.00600668756912152, 0.005846661515533924, 0.006024896788100402, 0.00603328226134181, 0.006147891283035278, 0.0057241843702892465, 0.005729408779491981, 0.005524513001243274, 0.0054184434314568835, 0.0054445755667984486, 0.005301998152087132, 0.005427785993864139, 0.00522751547396183, 0.005298847643037637, 0.005012839411695798, 0.0050878142938017845, 0.005232920870184898, 0.005290889646857977, 0.00522210169583559, 0.0047230590134859085, 0.004451806657016277, 0.00451532502969106, 0.004416885630538066, 0.004470328024278085, 0.004299629324426253, 0.004408294490228097, 0.004509255134811004, 0.004719329221795003, 0.004370270607372125, 0.004404520305494468, 0.004393978354831536, 0.003689931550373634, 0.003357710394387444, 0.003228001451740662, 0.0032013250359644494, 0.003116966380427281, 0.0031607200702031455, 0.0031404368734608092, 0.0031547221976021924, 0.0031424190383404493, 0.0032125002859781184, 0.0030968438368290663, 0.003022692088658611, 0.003062047607575854, 0.0030258596719553075, 0.0030413375546534858]",0.02284827860429825,0.35429840050935246,0.026799373706575088,0.33645841503327567,0.05656532777368422,0.23848774590614352,0.06772673733804446,0.18696689183533294,0.6818487708431422,102.10360098700039,cuda
MITDB,172_MITDB_id_3_Medical_tr_27274_1st_27374,RN,pvt_autoencoder_differential_lr,128,37,37,64,100,0.001,"[0.19642130881547928, 0.17660874128341675, 0.1666935071349144, 0.16194550096988677, 0.15985366553068162, 0.1587417393922806, 0.158103309571743, 0.15785630643367768, 0.15754661709070206, 0.15730777233839036, 0.157092647254467, 0.15681217908859252, 0.15658622235059738, 0.15630766600370408, 0.15602197498083115, 0.15571924299001694, 0.15544868558645247, 0.1550446480512619, 0.15464908331632615, 0.15401506870985032, 0.15376747101545335, 0.15322265774011612, 0.15257573127746582, 0.15229166448116302, 0.15133913308382035, 0.15100163221359253, 0.15057304501533508, 0.14995652735233306, 0.14855504482984544, 0.14793483465909957, 0.14761505424976348, 0.1451892763376236, 0.1428306981921196, 0.14036779552698136, 0.13753426373004912, 0.13540054112672806, 0.13216871693730353, 0.131667160987854, 0.12443865686655045, 0.12266278639435768, 0.12098134085536003, 0.11698004081845284, 0.11474232971668244, 0.10973950251936912, 0.10562223121523857, 0.10211013481020928, 0.09958207979798317, 0.09690534994006157, 0.09348829686641694, 0.0913732260465622, 0.08815910667181015, 0.08331150934100151, 0.07933752089738846, 0.07819901630282403, 0.0752127930521965, 0.06967778429389, 0.06887223310768605, 0.06807381212711335, 0.06179259046912193, 0.05707417540252209, 0.05638767071068287, 0.05399546176195145, 0.053511325642466544, 0.049518180266022685, 0.045022552087903026, 0.042466724291443825, 0.03974991142749786, 0.03600998781621456, 0.03407445698976517, 0.03489722590893507, 0.03453641124069691, 0.03510760888457298, 0.032300826720893384, 0.02929954808205366, 0.025031331367790698, 0.023173368349671365, 0.022918590903282167, 0.021642727963626384, 0.02186832781881094, 0.02225118298083544, 0.020182104408741, 0.02073852065950632, 0.019568485394120216, 0.017640639469027518, 0.017190133314579727, 0.01678399434313178, 0.01533908722922206, 0.014122731704264879, 0.013505238946527243, 0.01276977900415659, 0.012415555492043494, 0.012735526263713836, 0.012230138294398785, 0.012310199160128831, 0.01193331740796566, 0.011586205195635557, 0.011449670139700174, 0.012171815149486065, 0.011442061327397824, 0.011041622050106526]","[0.18793665369351706, 0.17755896349747977, 0.16560617089271545, 0.16101854046185812, 0.15932645400365195, 0.15858276188373566, 0.15802631775538126, 0.1578314999739329, 0.1576507737239202, 0.1575473795334498, 0.15758341054121652, 0.1576804667711258, 0.1568681299686432, 0.15728909273942313, 0.1563681662082672, 0.15594695508480072, 0.15610308945178986, 0.15588900446891785, 0.15504275759061178, 0.1548652102549871, 0.15827183922131857, 0.1546424279610316, 0.15567721923192343, 0.1539960354566574, 0.15396217008431753, 0.1524064987897873, 0.15177840491135916, 0.15229513247807822, 0.15034075578053793, 0.1506055494149526, 0.1503639668226242, 0.147136390209198, 0.14408649504184723, 0.14157570401827493, 0.13904423515001932, 0.13992378115653992, 0.1371095577875773, 0.1325592522819837, 0.12815870841344199, 0.1253533586859703, 0.1268616591890653, 0.12107512603203456, 0.1199109156926473, 0.11517154177029927, 0.11124897748231888, 0.1084374487400055, 0.10527957727511723, 0.10162483652432759, 0.1047481248776118, 0.1007220447063446, 0.09784712394078572, 0.09452067563931148, 0.09193634241819382, 0.09118339419364929, 0.08461156239112218, 0.0795883337656657, 0.08344281713167827, 0.07926426579554875, 0.0723836546142896, 0.06927181656161945, 0.06448051830132802, 0.06697094812989235, 0.06440537422895432, 0.058447944621245064, 0.05242736761768659, 0.04958576833208402, 0.04598907257119814, 0.04256788268685341, 0.040698873500029244, 0.04209078475832939, 0.03994170327981313, 0.040357248236735664, 0.03617063661416372, 0.03189392574131489, 0.02924840214351813, 0.027706259861588478, 0.02627777059872945, 0.024683724467953045, 0.025402948260307312, 0.025477914760510128, 0.022456273436546326, 0.022129258140921593, 0.021069388836622238, 0.019068161646525066, 0.01872081868350506, 0.018518604338169098, 0.017264025906721752, 0.016085710066060226, 0.015384531579911709, 0.014807353106637796, 0.014267560094594955, 0.014243779393533865, 0.013963814514378706, 0.013401215275128683, 0.013344630288581053, 0.013070687651634216, 0.012861364831527075, 0.013193312411506971, 0.012347825802862644, 0.012134506367146969]",0.024557518678462974,0.34784431664047294,0.027381263737366043,0.3295930020126102,0.05823558443570201,0.29195952730362246,0.07684918347742521,0.8416039034322377,0.7029969988780673,99.74428115901537,cuda
MITDB,172_MITDB_id_3_Medical_tr_27274_1st_27374,LP,cnn_autoencoder,128,37,37,64,150,0.001,"[0.2451736107468605, 0.20522410571575164, 0.17376211583614348, 0.14700760692358017, 0.12332314252853394, 0.10276454091072082, 0.08595982491970063, 0.07267593890428543, 0.062049304321408275, 0.05374895669519901, 0.04696601293981075, 0.04171181693673134, 0.03745718970894814, 0.03393963798880577, 0.031100820377469064, 0.02866902332752943, 0.02653673980385065, 0.024911451525986193, 0.023183451592922212, 0.021884167194366456, 0.020788936875760555, 0.019697611592710017, 0.018667674250900747, 0.01792915426194668, 0.01718585956841707, 0.016564762592315672, 0.015919757913798092, 0.015440278314054012, 0.014793789852410555, 0.014384162239730358, 0.013987688161432744, 0.01355706825852394, 0.013239796552807093, 0.012865621410310269, 0.012599258311092853, 0.01234430931508541, 0.01207177024334669, 0.011847003735601902, 0.011688211932778358, 0.011368757858872414, 0.011209278274327517, 0.010989065747708082, 0.010842215269804, 0.010736810881644488, 0.010533894598484039, 0.010384955164045095, 0.010248599760234355, 0.01003430113196373, 0.009940817765891553, 0.009804920200258494, 0.009794559236615897, 0.009598629549145699, 0.00946346428245306, 0.009375332202762366, 0.009251418523490429, 0.00918444050475955, 0.009156427904963493, 0.008977412711828947, 0.008767204359173775, 0.008776943292468786, 0.008695262856781483, 0.008533660974353551, 0.008410056121647358, 0.008221450075507165, 0.008190785720944404, 0.00801696553826332, 0.007926019467413425, 0.007915259199216962, 0.00778204184025526, 0.007626186683773994, 0.00754027059301734, 0.007384335296228528, 0.007184183644130826, 0.007133910153061152, 0.007068795338273049, 0.006908613443374634, 0.006810809532180428, 0.006699792807921767, 0.006622932245954871, 0.006486741034314037, 0.0063876000232994555, 0.00632554367184639, 0.006213796278461814, 0.006038971059024334, 0.005955416010692716, 0.00576076558791101, 0.00567704327404499, 0.0056394103448837996, 0.005515785655006766, 0.005456419568508864, 0.005370649369433522, 0.005301404930651188, 0.005331471096724272, 0.005089924694038928, 0.005067120492458344, 0.00512670511379838, 0.004960769414901733, 0.005003411415964365, 0.0049140254966914656, 0.00490754172205925, 0.004815270146355033, 0.004704190604388714, 0.00471784109249711, 0.004667206946760416, 0.0046357792802155014, 0.004619204718619585, 0.004518814850598574, 0.00452325395308435, 0.004499960830435157, 0.004411360993981361, 0.004409469105303288, 0.0044297076063230635, 0.004310097079724073, 0.004345584288239479, 0.004313675127923489, 0.0042381406296044585, 0.00425478471443057, 0.004224916966632008, 0.004172506416216493, 0.004146421537734568, 0.0040975526673719285, 0.0041120575275272134, 0.004155209450982511, 0.0040400549303740265, 0.004080338985659182, 0.003967574681155384, 0.004037217074073851, 0.0039947233628481625, 0.004027733416296542, 0.003966961661353708, 0.0039641101146116854, 0.003879459132440388, 0.003880761913023889, 0.0038590632379055024, 0.0038443265249952672, 0.003742313617840409, 0.0037197818048298357, 0.0037343345349654554, 0.0037195411743596194, 0.0036705269012600183]","[0.24230203529198965, 0.21375164886315665, 0.18165315687656403, 0.15081234773000082, 0.11900763461987178, 0.09376490116119385, 0.07681301236152649, 0.06538945188124974, 0.05625817055503527, 0.04959918682773908, 0.04427267983555794, 0.03833821788430214, 0.0366549218694369, 0.03199458494782448, 0.03022137035926183, 0.027084914967417717, 0.025207338854670525, 0.023983219638466835, 0.02229352667927742, 0.021099957327047985, 0.020291655013958614, 0.019250988960266113, 0.01840870516995589, 0.01768270197014014, 0.01690652221441269, 0.016562108571330707, 0.016186244785785675, 0.01589016802608967, 0.015037440073986849, 0.014481923232475916, 0.014256733159224192, 0.013944057747721672, 0.01376313716173172, 0.013354638901849588, 0.013222955477734407, 0.012773880114157995, 0.01257761474698782, 0.012362577331562838, 0.012128786804775396, 0.01194156613200903, 0.011751663560668627, 0.011629666512211164, 0.011447117663919926, 0.011431407804290453, 0.011200608685612679, 0.011057687612871328, 0.010917006681362787, 0.010731763827304045, 0.010571567341685295, 0.010519806916515032, 0.01047821156680584, 0.010406553745269775, 0.010305429498354593, 0.010170113916198412, 0.010055380252500376, 0.009994513355195522, 0.009948047809302807, 0.009893727178374926, 0.009711237313846747, 0.009633605057994524, 0.009494485954443613, 0.009360084931055704, 0.009405256559451422, 0.009257148330410322, 0.009128585768242678, 0.009069683340688547, 0.008927303987244764, 0.008911612754066786, 0.00883917355289062, 0.008751090615987778, 0.008671508791546026, 0.008662087221940359, 0.00840186762313048, 0.008322760462760925, 0.008334623028834661, 0.008221947588026524, 0.008125432766973972, 0.00810205222417911, 0.00790972417841355, 0.007804280923058589, 0.007812488048026959, 0.007694592854628961, 0.007653356374551852, 0.007574418559670448, 0.007506397552788258, 0.007407695986330509, 0.007307765539735556, 0.007324566909422477, 0.007295265638579925, 0.007232778084774812, 0.0071851033717393875, 0.00714645426099499, 0.007070115922639768, 0.007046213218321403, 0.007009430788457394, 0.006918614575018485, 0.006956757201502721, 0.006929954669127862, 0.006889075506478548, 0.006876752246171236, 0.006877103044341008, 0.0068428923065463705, 0.006821695249527693, 0.006782970701654752, 0.006784382586677869, 0.006775741154948871, 0.006718472267190616, 0.006752984908719857, 0.006723790584752957, 0.006673944493134816, 0.006669142283499241, 0.006694225283960502, 0.006674270921697219, 0.006643025514980157, 0.0066785031619171304, 0.006651625968515873, 0.006642480846494436, 0.006611563575764497, 0.006636125190804402, 0.006602088920772076, 0.006602596491575241, 0.0065893080706397695, 0.00661286882435282, 0.006602028229584296, 0.006572573911398649, 0.0065393331460654736, 0.006520591055353482, 0.006563234453399976, 0.006547400262206793, 0.0065216437603036565, 0.0065542963954309625, 0.006534664115558068, 0.0065375374009211855, 0.006501756763706605, 0.0064978393105169134, 0.0065190076517562074, 0.006507550831884146, 0.006519395858049393, 0.006507262587547302, 0.006520729511976242]",0.05456173282079821,0.5360887658298155,0.05621604592957852,0.5868667745160306,0.11495804018347842,0.7260685319787837,0.2467532467532465,0.16260097247713498,0.7944895897624976,78.16632862808183,cuda
MITDB,172_MITDB_id_3_Medical_tr_27274_1st_27374,LP,resnet18_autoencoder_frozen,128,37,37,64,100,0.001,"[0.21074078232049942, 0.14679523706436157, 0.10872759521007538, 0.0830568440258503, 0.06466725841164589, 0.05148753747344017, 0.04229897707700729, 0.03581128977239132, 0.031152914464473724, 0.027779332362115383, 0.025281406939029694, 0.02330510914325714, 0.02179954145103693, 0.02072617579251528, 0.01962341070175171, 0.018801677972078323, 0.01802140586078167, 0.016883707046508788, 0.016070781834423543, 0.015437491051852704, 0.014804865047335625, 0.014324534218758345, 0.013923615496605635, 0.013566209375858307, 0.013183064293116331, 0.012838773801922799, 0.012499354872852564, 0.012366823572665452, 0.012019258178770541, 0.011795899923890829, 0.011435116454958916, 0.011272056959569454, 0.011144074611365795, 0.011202733870595694, 0.010861004889011382, 0.010595349874347449, 0.010411890223622322, 0.009991809073835612, 0.010137850418686867, 0.010046718548983336, 0.009759548306465148, 0.009418264683336019, 0.009309691935777664, 0.009324489999562502, 0.0092009917832911, 0.008903296571224928, 0.008691225294023752, 0.008741103392094374, 0.008508739806711674, 0.008323402004316449, 0.008129547350108624, 0.00788425887003541, 0.007907981192693115, 0.007954232767224312, 0.007866681972518563, 0.007570255873724818, 0.007444701530039311, 0.0078010975383222105, 0.007432710099965334, 0.007098469370976091, 0.006909243483096361, 0.006812149239704013, 0.006913653574883938, 0.0068201006855815646, 0.006698516895994544, 0.006743949465453624, 0.006685728812590242, 0.006432391051203012]","[0.2355335851510366, 0.15312077105045319, 0.09765523175398509, 0.07046924283107121, 0.05422729626297951, 0.04381861040989558, 0.036966739843289055, 0.032108293225367866, 0.02853355184197426, 0.025632910430431366, 0.02350594537953536, 0.021935539940992992, 0.020690706248084705, 0.0196264802167813, 0.018704210097591083, 0.01802251487970352, 0.01706920253733794, 0.016277480870485306, 0.0151494729022185, 0.014487385439376036, 0.014163825971384844, 0.013960114059348902, 0.013503060986598333, 0.013285092078149319, 0.013227875965336958, 0.012799988190333048, 0.012666871150334677, 0.012463454467554888, 0.012441004005571207, 0.012135658413171768, 0.011803346375624338, 0.01183647041519483, 0.011591811974843344, 0.011577883424858252, 0.01131046066681544, 0.011143738714357218, 0.01105017401278019, 0.010779522669812044, 0.010815329849720001, 0.010529948708911737, 0.010735833086073399, 0.010608250896135965, 0.010664965336521467, 0.010220687836408615, 0.010382729582488537, 0.010199187323451042, 0.010358942672610283, 0.010111254639923573, 0.010137454917033514, 0.009920091368258, 0.010000383791824182, 0.010076144089301428, 0.009971064204970995, 0.010047852682570616, 0.009994985846181711, 0.010004137021799883, 0.00991681000838677, 0.009810665311912695, 0.010014508540431658, 0.009819877954820791, 0.010125848154226938, 0.00999591996272405, 0.009921166735390822, 0.009947266429662704, 0.010003142369290194, 0.009784822973112265, 0.009739205862085024, 0.0099447105700771]",0.054279879546264224,0.5570672484205635,0.06022468184551944,0.6082790266923576,0.11981619513391806,0.6201579453049938,0.20326487625065798,0.13831390582643702,0.7217181212329031,46.61929918709211,cuda
MITDB,172_MITDB_id_3_Medical_tr_27274_1st_27374,LP,resnet18_autoencoder_progressive_unfreeze,128,37,37,64,150,0.001,"[0.23239665776491164, 0.1699660137295723, 0.12809010222554207, 0.0932395376265049, 0.06774483919143677, 0.05147735513746739, 0.04116406962275505, 0.034283393621444704, 0.029521351493895055, 0.026374765671789646, 0.024002804420888424, 0.022249739058315753, 0.020823728293180466, 0.01968581825494766, 0.01878503244370222, 0.017838145978748797, 0.017058329097926615, 0.016233895812183617, 0.015806325152516364, 0.015219841990619898, 0.014600684307515622, 0.012986594811081886, 0.012138555850833654, 0.011463363748043775, 0.011107083223760129, 0.010789777524769307, 0.010594095941632986, 0.009911357332020998, 0.00965467281639576, 0.0095631692558527, 0.009403927717357874, 0.009263636823743582, 0.009146599564701319, 0.008740569651126861, 0.008796590054407716, 0.00858021005988121, 0.008563111163675785, 0.008385184593498707, 0.008262551296502352, 0.008302303776144982, 0.008310501091182232, 0.007989330729469658, 0.007839676132425666, 0.008022913243621588, 0.007826253166422248, 0.007821993436664343, 0.0076785524841398, 0.007718700356781483, 0.00746974372304976, 0.007359558716416359, 0.0072743621654808525, 0.007266272744163871, 0.007262480212375522, 0.007108389725908637, 0.00698113334365189, 0.006929046055302024, 0.0067528319545090195, 0.0067157404962927105, 0.006752072228118777, 0.006671444093808532, 0.006263061286881566, 0.006410740455612541, 0.006444742949679494, 0.006142120249569416, 0.006004274589940906, 0.005489556863903999, 0.005514791188761592, 0.005329100508242845, 0.005148112028837204, 0.005103686219081282, 0.005081623373553157, 0.005507165193557739, 0.00506037452723831, 0.004799723671749234, 0.00497616995126009, 0.004802810586988926, 0.004563935101032257, 0.00463565499521792, 0.004511292697861791, 0.004404188832268119, 0.004193731024861336, 0.004321578796952963, 0.004371217824518681, 0.004233317892067134, 0.004199111578054726, 0.00429292896296829, 0.004033054457977414, 0.0039098280481994156]","[0.24964473644892374, 0.17977004746596018, 0.11390650024016698, 0.07580513258775075, 0.05456121017535528, 0.04260262846946716, 0.035000015050172806, 0.030290482565760612, 0.0270376019179821, 0.024515754853685696, 0.022463771825035412, 0.020969777678449947, 0.019711649666229885, 0.01865667849779129, 0.01802978354195754, 0.017161646857857704, 0.01657808944582939, 0.01572933668891589, 0.015496745705604553, 0.014563311822712421, 0.013127056260903677, 0.01222053108115991, 0.011417092134555181, 0.011177482083439827, 0.010620804503560066, 0.010195209955175718, 0.009998803026974201, 0.009590859214464823, 0.009879001416265965, 0.00977044024815162, 0.009004511249562105, 0.009362196549773216, 0.008998877679308256, 0.008803858732183775, 0.008772517244021097, 0.00871020027746757, 0.008535517690082392, 0.008611748926341534, 0.008454474620521069, 0.00827423483133316, 0.008247234858572483, 0.008256758563220501, 0.00825638851771752, 0.008069287054240704, 0.008198168439169725, 0.008447482250630856, 0.008502117358148098, 0.008087630694111189, 0.008251908080031475, 0.008008760865777731, 0.008120816200971603, 0.008035797625780106, 0.008026602367560068, 0.007792171401282151, 0.007802244431028764, 0.007914566590140263, 0.007572456728667021, 0.007902505807578564, 0.007803531363606453, 0.007841637202848991, 0.007641151392211516, 0.007658899761736393, 0.007635120147218307, 0.007544492371380329, 0.007322085710863273, 0.007149651957054933, 0.007075080648064613, 0.007118235031763713, 0.007152149919420481, 0.007090842196096976, 0.006988775295515855, 0.007134845635543267, 0.007188873986403148, 0.007330385036766529, 0.007050504752745231, 0.006959760095924139, 0.00689936646570762, 0.006815946660935879, 0.007146320926646392, 0.006786769566436608, 0.007143610001852115, 0.0071277497336268425, 0.007034147313485543, 0.0072133406065404415, 0.0073624819827576475, 0.007070847166081269, 0.0068649227420489, 0.0070288705949982004]",0.047486147691248384,0.5549117417025897,0.054693080257028626,0.6053090251553752,0.11309395392763388,0.5881571875691568,0.15612777053454982,0.11283819737785683,0.71813800252988,62.582882995018736,cuda
MITDB,172_MITDB_id_3_Medical_tr_27274_1st_27374,LP,resnet18_autoencoder_differential_lr,128,37,37,64,100,0.001,"[0.17955380231142043, 0.12059373557567596, 0.08839045092463493, 0.06767577156424523, 0.053450169414281844, 0.04363584220409393, 0.03670234344899655, 0.03178690075874328, 0.02824454437941313, 0.025528131052851677, 0.02350374646484852, 0.021768878027796746, 0.020306463353335857, 0.01905188262462616, 0.018011787533760072, 0.017170440778136252, 0.016574809886515142, 0.015832875948399307, 0.015345129743218422, 0.014767873287200927, 0.014352041576057673, 0.013969621155411005, 0.013548884633928537, 0.013500681146979332, 0.012785827368497848, 0.012845317088067531, 0.012326842732727527, 0.012108719255775214, 0.011736678052693605, 0.011479731276631355, 0.011090781725943088, 0.010919707920402288, 0.010982342530041933, 0.010537691880017519, 0.01017974279820919, 0.010224279388785363, 0.009953635837882757, 0.009847620222717523, 0.009430975373834371, 0.009577452577650547, 0.009156150557100774, 0.009100205404683948, 0.008989054569974541, 0.008778937906026841, 0.00872240443713963, 0.008522938657552003, 0.008351408643648028, 0.008556182542815805, 0.008382080681622028, 0.008083002408966422, 0.00803904072381556, 0.008061465155333281, 0.007772144814953208, 0.008055211417376995, 0.008269491232931614, 0.0079819621052593, 0.007856170367449521, 0.008079851558431984, 0.007725195307284593, 0.00744586531072855, 0.007887204689905048, 0.00724009177647531, 0.00734535651281476, 0.00759318801574409, 0.0072953589260578156, 0.00730571742169559, 0.007093817787244916, 0.0069921887945383785, 0.007027434138581157, 0.0068269014358520504, 0.006984851136803627, 0.006830476736649871, 0.0068637208547443155, 0.006641199486330152, 0.006569338217377663, 0.006250046193599701, 0.005964563926681876, 0.005884060589596629, 0.006448192382231354, 0.006192814279347658, 0.006015144567936659, 0.005971842259168625, 0.005770930787548423, 0.00563378594815731, 0.005472560878843069, 0.0055135836824774746, 0.005501811765134335, 0.0056044190190732476, 0.0057917695958167315, 0.0053487441968172785, 0.005530735524371266, 0.005208366899751127, 0.005413197167217732, 0.0051094911526888605, 0.0050073675345629455, 0.0050283655058592554]","[0.20300187667210898, 0.12785641849040985, 0.08015894889831543, 0.05812762429316839, 0.045900279035170875, 0.038360865165789924, 0.03311873351534208, 0.02907748334109783, 0.026290207480390865, 0.02374652897318204, 0.02219545344511668, 0.020809821784496307, 0.019386600082119305, 0.01803032060464223, 0.016969046245018642, 0.016210273529092472, 0.015457047459979853, 0.014807927732666334, 0.014612095120052496, 0.013952115861078104, 0.013622066316505274, 0.013108585340281328, 0.013125653068224588, 0.01250800397247076, 0.012122420594096184, 0.0119010458389918, 0.011629284049073855, 0.011613515205681324, 0.011061682055393854, 0.010891768150031567, 0.010572603593269983, 0.010378404210011164, 0.010182584325472513, 0.009886283737917742, 0.009682476830979189, 0.009622553053001562, 0.009539621571699778, 0.009436082715789476, 0.009306144900619984, 0.0092270877212286, 0.009101020482679209, 0.00879976029197375, 0.00875566340982914, 0.008692719042301178, 0.008574960442880789, 0.00864289483676354, 0.00861244679739078, 0.008345329202711582, 0.008242140213648478, 0.008268672041594982, 0.008154270549615225, 0.008438927431901297, 0.008259667083621025, 0.00801138672977686, 0.008772598269085089, 0.008040198435386023, 0.007933780395736298, 0.007938921762009462, 0.007954682068278393, 0.0077660710861285525, 0.00768872428064545, 0.007763496910532315, 0.007966532682379087, 0.0075442347054680186, 0.007715882267802954, 0.007684949164589246, 0.007643533094475667, 0.0076606290725370245, 0.0072930788931747275, 0.007418436619142692, 0.007490548305213451, 0.007458938440928857, 0.007320437890787919, 0.007425120876481135, 0.007420579437166452, 0.007110368770857652, 0.007089235664655765, 0.007150271752228339, 0.007034193569173415, 0.006944081590821345, 0.007059203616032998, 0.006958932305375735, 0.006930526656409104, 0.006847567235430081, 0.007060252130031586, 0.006783543154597282, 0.007115106408794721, 0.0068339575082063675, 0.00691717645774285, 0.007195616296182076, 0.0067929864550630254, 0.006964712403714657, 0.0068712605473895865, 0.006799080564330022, 0.006808216528346141, 0.006820107344537973]",0.07582524889991697,0.5549511797914635,0.07538434064229933,0.6064278273134559,0.16224530450798794,0.7256059067329069,0.4150943396226411,0.1777977985282507,0.8052782176477106,71.85319395014085,cuda
MITDB,172_MITDB_id_3_Medical_tr_27274_1st_27374,LP,pvt_autoencoder_frozen,128,37,37,64,100,0.001,"[0.22248071879148484, 0.1583824560046196, 0.11516260579228402, 0.083956541121006, 0.06252955049276351, 0.04831273145973682, 0.03919013440608978, 0.03319233395159245, 0.029154154658317565, 0.02618058156222105, 0.023883019015192984, 0.022289877384901048, 0.020936429873108862, 0.01993377972394228, 0.01896760854870081, 0.018294870667159558, 0.01762640252709389, 0.017253891192376615, 0.016658535972237588, 0.01630412321537733, 0.015691627096384764, 0.015115951001644135, 0.014757322054356337, 0.01412158813327551, 0.013798586279153823, 0.01318794758990407, 0.012823897041380405, 0.012551866564899683, 0.012270864285528659, 0.01189574096351862, 0.011253612861037255, 0.011268103774636985, 0.010856328159570694, 0.010488855838775634, 0.010141140688210726, 0.01008655084297061, 0.010047683864831925, 0.00975273186340928, 0.009332322841510176, 0.009302710741758346, 0.009157834947109223, 0.009090090822428464, 0.008941040746867657, 0.008914452604949474, 0.008904460072517394, 0.008418630668893456, 0.008264190470799803, 0.00840262034907937, 0.008482718002051115, 0.008035196829587221, 0.007993577839806676, 0.007809822401031852, 0.0077147235628217455, 0.00751711786724627, 0.00751079274341464, 0.007244045566767454, 0.007276461739093065, 0.006887517310678959, 0.00676023168489337, 0.006867356225848198, 0.006803619815036655, 0.006609936617314816, 0.006885964050889015, 0.006516815489158034, 0.006238091271370649, 0.00593075598590076, 0.00573017387650907, 0.005561824422329664, 0.0054398063570261, 0.005559113947674632, 0.005287304939702153, 0.005420436570420861, 0.0054780058562755585, 0.005518609238788485, 0.005260161589831114]","[0.2271019717057546, 0.16104651987552643, 0.10132322460412979, 0.07086656490961711, 0.05319028223554293, 0.04182117059826851, 0.035165595511595406, 0.030932757382591564, 0.027829901004830997, 0.025151353950301807, 0.023433012266953785, 0.021678305541475613, 0.02056536388893922, 0.01957998362680276, 0.018791713441411655, 0.0180974081158638, 0.017779873684048653, 0.01718941020468871, 0.016595012197891872, 0.015881576885779698, 0.015554478392004967, 0.015150175740321478, 0.014328276428083578, 0.014332116891940435, 0.013805433176457882, 0.013095802317063013, 0.012447970608870188, 0.012451261902848879, 0.012747966684401035, 0.01158405343691508, 0.0117770213012894, 0.011271086521446705, 0.01088994275778532, 0.010307138475279013, 0.010219010834892591, 0.010120126729210218, 0.010062397768100103, 0.009890799100200335, 0.009549487382173538, 0.009544392116367817, 0.0094818448026975, 0.009219865004221598, 0.009372393600642681, 0.009347412114342054, 0.009106352304418882, 0.008810929954051971, 0.009253088384866714, 0.009078707235554853, 0.008905372271935144, 0.008905383137365183, 0.008830155866841475, 0.008731403077642122, 0.008716912008821964, 0.008615059467653433, 0.008672150783240795, 0.008624757950504621, 0.008323415803412596, 0.008255706168711185, 0.008341354628403982, 0.008324596720437208, 0.008498423422376314, 0.008792696831127008, 0.008298889733850956, 0.00828628366192182, 0.008131584773461023, 0.008190037061770758, 0.008217050383488337, 0.008206382393836975, 0.008094201795756817, 0.008107290913661322, 0.008168633095920086, 0.008299021671215693, 0.008267779213686785, 0.008191460743546486, 0.00816695143779119]",0.05384832954260539,0.5595947295707341,0.05716433572102119,0.6109814505504959,0.12340250195005048,0.5253524366599849,0.19047619047619024,0.10972073877539454,0.7206809689878372,55.93080944288522,cuda
MITDB,172_MITDB_id_3_Medical_tr_27274_1st_27374,LP,pvt_autoencoder_progressive_unfreeze,128,37,37,64,150,0.001,"[0.199476158618927, 0.13974592313170434, 0.10398831814527512, 0.07922439351677894, 0.06200819909572601, 0.04986626245081425, 0.04137868694961071, 0.03525928743183613, 0.030827002227306367, 0.02756564263254404, 0.025165875628590583, 0.023293315805494784, 0.021743886917829514, 0.020559615455567837, 0.019547369703650473, 0.018552479892969133, 0.017712349258363246, 0.01672897394746542, 0.016044535022228957, 0.01537444144487381, 0.017141696810722352, 0.01441763797774911, 0.013285900466144085, 0.012425563856959343, 0.011683513317257166, 0.011091614048928023, 0.010901850741356611, 0.010628338064998388, 0.010130865033715963, 0.009863938298076391, 0.009654001798480749, 0.00960159469395876, 0.009197851829230785, 0.008948114095255732, 0.008912145160138607, 0.008836777741089463, 0.008835924789309502, 0.008558593969792128, 0.008408097829669715, 0.007932095928117633, 0.008302221912890673, 0.008289801608771085, 0.008172006905078888, 0.007932201493531466, 0.008202103711664677, 0.007994996104389428, 0.007739841751754284, 0.007663779333233834, 0.007619892852380872, 0.00770078543573618, 0.00753838699311018, 0.00731976730749011, 0.007146639982238412, 0.007070286478847265, 0.007324271369725466, 0.007223902968689799, 0.00701984940096736, 0.007352669956162572, 0.007482765382155776, 0.007084142649546266, 0.006854438735172152, 0.006390461325645446, 0.006234448589384556, 0.005878499709069729, 0.005790065135806799, 0.00568142426200211, 0.00574083742685616, 0.005688425898551941, 0.005571562331169844, 0.005501198070123792, 0.005522354878485203, 0.005530462134629488, 0.0055280567612499, 0.005558982910588384, 0.005609606765210629, 0.005319147789850831, 0.0051793413236737255, 0.005254905205219984, 0.0052664156537503, 0.0049926511943340305, 0.00504428162239492]","[0.2269320289293925, 0.13717174530029297, 0.09085134913523991, 0.06800684332847595, 0.05445127685864767, 0.044489199916521706, 0.037506436308225, 0.03240827967723211, 0.028761725251873333, 0.026458071544766426, 0.024532078454891842, 0.022908858954906464, 0.021523041029771168, 0.020813273265957832, 0.0199184895803531, 0.019615205004811287, 0.018811195467909176, 0.01705999920765559, 0.01616734390457471, 0.015166376406947771, 0.014490718642870585, 0.013730849449833235, 0.012277073537309965, 0.011594014863173166, 0.01105821318924427, 0.010610115714371204, 0.010356220416724682, 0.010213451149562994, 0.00994804222136736, 0.00970247263709704, 0.009497496609886488, 0.009488044617076715, 0.009219270509978136, 0.008950453872481981, 0.008908132091164589, 0.009052089415490627, 0.00877643966426452, 0.008666756252447764, 0.008516688520709673, 0.008561629491547743, 0.00850065549214681, 0.008307258288065592, 0.008603115566074848, 0.008626371311644713, 0.008388012026747068, 0.00843193226804336, 0.008411495635906855, 0.008049841349323591, 0.008452378213405609, 0.00804227606082956, 0.007942127374311289, 0.007912930101156235, 0.007898515556007624, 0.007841895334422588, 0.008048562332987785, 0.007948930375277996, 0.007853259487698475, 0.008283916860818863, 0.008308428339660168, 0.008055091214676699, 0.007596693156907956, 0.007513018480191628, 0.007469160947948694, 0.007377586017052333, 0.007324096281081438, 0.007528465706855059, 0.007268951584895452, 0.00739744957536459, 0.007282762788236141, 0.007315808907151222, 0.007219754469891389, 0.007333164258549611, 0.007474189003308614, 0.007399232902874549, 0.007324274939795335, 0.007187341650327046, 0.007358814744899671, 0.007214488151172797, 0.0072502826030055685, 0.007186578741918008, 0.007177502382546663]",0.060187594571081734,0.5738042348241315,0.06926586671448597,0.6238574174071851,0.14427805918664963,0.6885378889100974,0.21856935222805773,0.1570087434575488,0.757476826008486,72.14552250411361,cuda
MITDB,172_MITDB_id_3_Medical_tr_27274_1st_27374,LP,pvt_autoencoder_differential_lr,128,37,37,64,100,0.001,"[0.22760653495788574, 0.17728905230760575, 0.1348438709974289, 0.0996099017560482, 0.07535408660769463, 0.05862436555325985, 0.047024572640657424, 0.03892588019371033, 0.03337088376283646, 0.02946327030658722, 0.026615324802696703, 0.02449173144996166, 0.022945370897650717, 0.0217106644064188, 0.02073590587824583, 0.019959461502730848, 0.019316701218485832, 0.018679574690759183, 0.018221003562211992, 0.017811161279678345, 0.01735177505761385, 0.017095007002353668, 0.0167173620313406, 0.016438264958560468, 0.016130325756967066, 0.01602054052054882, 0.015661950688809156, 0.015396730322390795, 0.015101670287549496, 0.01510255066677928, 0.015042215213179588, 0.01474514426663518, 0.014545048959553242, 0.014310303423553706, 0.014299905300140381, 0.01412563407793641, 0.014085046388208866, 0.013931339513510466, 0.013699054531753064, 0.013640619441866874, 0.013792367838323116, 0.013612057361751796, 0.013520365674048662, 0.013486047834157943, 0.013410021737217902, 0.013331337552517652, 0.013553667813539505, 0.013438629917800426, 0.013160035945475101, 0.013187762349843979, 0.0128889256156981, 0.013021792378276586, 0.013144985493272542, 0.012846686411648989, 0.012979807239025832, 0.01271999478340149, 0.01261981213465333, 0.012405542377382516, 0.012501542456448078, 0.012276881840080023, 0.012105667125433683, 0.012515685055404902, 0.012093360535800457, 0.012306368071585893, 0.012219666410237551, 0.011811616178601981, 0.011512185540050268, 0.011568500008434058, 0.011259211786091327, 0.010928968340158463, 0.010525663010776043, 0.01053397273644805, 0.010282984003424644, 0.010143880639225245, 0.010141024366021156, 0.009991367906332016, 0.010059049911797046, 0.009830185305327177, 0.009433624148368836, 0.009310147166252137, 0.009068474825471639, 0.008691836753860116, 0.00860964939929545, 0.008951663132756948, 0.008847355563193559, 0.008835933357477187, 0.008600343763828278, 0.008468537498265505, 0.00840076208114624, 0.00830048625357449, 0.008686690591275692, 0.00850234548561275, 0.007919487822800875, 0.007920631347224117, 0.007827894669026137, 0.007835258590057492, 0.007965309545397758, 0.008263810724020004, 0.008106660237535835]","[0.21602331598599753, 0.15787817537784576, 0.10644577195247014, 0.07892883320649464, 0.06157224501172701, 0.04964380587140719, 0.041251072039206825, 0.03530467922488848, 0.031129371374845505, 0.028054023161530495, 0.02561715990304947, 0.02378379988173644, 0.0223899744451046, 0.021334261323014896, 0.020634920025865238, 0.020037489632765453, 0.020375472803910572, 0.018833970030148823, 0.018256548171242077, 0.01850614696741104, 0.016980323940515518, 0.0169568279137214, 0.016186485067009926, 0.01583157852292061, 0.015705306082963943, 0.015612998666862646, 0.015472463642557463, 0.015347141462067762, 0.015607626177370548, 0.015203283168375492, 0.014542565991481146, 0.014199190462629, 0.01388271494458119, 0.0139494010557731, 0.013733933369318644, 0.013812667069335779, 0.01343990241487821, 0.01329833393295606, 0.013344111541906992, 0.013260707880059877, 0.013032893650233746, 0.013440197333693504, 0.013204599420229593, 0.012927880510687828, 0.013023699323336283, 0.012860900412003199, 0.0131756408760945, 0.012950432797273, 0.013509986301263174, 0.012605764282246431, 0.012473660831650099, 0.013230343659718832, 0.012300945818424225, 0.012843476918836435, 0.012319387247165045, 0.0121349161490798, 0.012023214561243853, 0.012117325949172178, 0.011817300381759802, 0.011754044642051062, 0.011672598930696646, 0.011847608722746372, 0.011592107824981213, 0.01187508956839641, 0.011845416699846586, 0.011285031835238138, 0.011337239605685076, 0.010833756377299627, 0.01084029550353686, 0.010684297420084476, 0.010455645310382048, 0.010222904073695341, 0.009730633037785688, 0.009703543037176132, 0.010148348286747932, 0.0098227858543396, 0.009568173127869764, 0.009397306479513645, 0.009064553305506706, 0.008944152543942133, 0.008927751642962297, 0.008736486857136091, 0.008793639640013376, 0.00886489637196064, 0.008845925331115723, 0.00893450683603684, 0.008516669273376465, 0.00857895084967216, 0.00829272624105215, 0.008703255715469519, 0.008298581776519617, 0.008266204968094826, 0.008317376176516214, 0.008380572932461897, 0.008215137757360935, 0.008306847885251045, 0.00855945268025001, 0.008373586150507132, 0.008219819205502668]",0.04537382098233346,0.5293394960746773,0.05033070798097141,0.5790289915375882,0.11764656045492639,0.4792104493096752,0.16030133146461056,0.1069909006410278,0.7202118661682286,93.55774668999948,cuda
MITDB,172_MITDB_id_3_Medical_tr_27274_1st_27374,SG,cnn_autoencoder,128,37,37,64,150,0.001,"[0.06420665681362152, 0.049057059735059735, 0.034491277486085894, 0.0246648239903152, 0.019048298057168723, 0.014246904663741589, 0.01072808112949133, 0.009340818319469691, 0.006975356442853809, 0.0053338792873546485, 0.005050821136683226, 0.003906532051041722, 0.00530552351847291, 0.004419674258679151, 0.0034850381314754488, 0.005219159123953432, 0.002576940634753555, 0.0028671431588009, 0.0018411496421322227, 0.001756304781883955, 0.001681826147250831, 0.001384595676790923, 0.0013128604332450777, 0.0012229076586663724, 0.0009538300218991935, 0.00135478776646778, 0.0016482963517773896, 0.0011160395690239966, 0.0013896125834435224, 0.0015897080418653786, 0.0009307079657446593, 0.0008481233788188546, 0.0008118490048218518, 0.0007924386707600206, 0.0009701340430183336, 0.003685891767963767, 0.001722872257232666, 0.001465985510731116, 0.0009962516371160746, 0.0007715113053563983, 0.0021753350214567036, 0.000975860602920875, 0.0008138509409036487, 0.0011032801121473312, 0.00142789677483961, 0.0008865445561241359, 0.0007303017628146335, 0.0005648363148793578, 0.0008783722762018443, 0.0007628964143805206, 0.0005919119867030531, 0.002721567775006406, 0.0015847775503061712, 0.0007394749496597797, 0.0026454597420524804, 0.0014621879905462264, 0.0011667323356959968, 0.000850978767266497, 0.0006901418790221214, 0.0006043491302989423]","[0.05165038878719012, 0.04158219446738561, 0.027499228715896606, 0.016665020336707432, 0.011148191367586454, 0.010298452960948149, 0.006717970749984185, 0.009762653770546118, 0.003935131865243117, 0.003790398361161351, 0.003487745144714912, 0.002420454674089948, 0.002564831248794993, 0.0022980663925409317, 0.0025252248160541058, 0.008143572447200617, 0.004014258195335667, 0.004482374681780736, 0.0019821022481968007, 0.0015506379228706162, 0.001747778772066037, 0.0009051028561467925, 0.0008397240502138933, 0.0009516796368795136, 0.0008596893749199808, 0.000774899497628212, 0.0009925332269631326, 0.000758191104978323, 0.0009523908762882153, 0.0010576155812789996, 0.0008426433390316864, 0.0006514988684405884, 0.0008162544885029396, 0.0005530245058859388, 0.0005201109258147577, 0.0005532088495480517, 0.000842955739547809, 0.0011067742016166449, 0.0008523792494088411, 0.0022494240353504815, 0.0016363369456181924, 0.0004887713391023377, 0.00044310766194636625, 0.00045935918266574544, 0.0004159062906789283, 0.0005571676883846521, 0.0007128348418821892, 0.000388893618946895, 0.00035753064245606464, 0.00033634034722733003, 0.00036551351270948845, 0.0005877344713856777, 0.0024155521920571723, 0.000899191596545279, 0.0007052255677990615, 0.0013331238102788727, 0.0008138682848463455, 0.0005060893696888039, 0.0004033527511637658, 0.00035616728321959573]",0.05665964293665887,0.49235541713721115,0.06485692367541422,0.5379000213049563,0.16405720626752707,0.8018359915893123,0.4324009324009319,0.25584197442218914,0.7941105702481093,34.06186735187657,cuda
MITDB,172_MITDB_id_3_Medical_tr_27274_1st_27374,SG,resnet18_autoencoder_frozen,128,37,37,64,100,0.001,"[0.06672762259840966, 0.045283544436097146, 0.034500276669859886, 0.02822076566517353, 0.021440345048904418, 0.015084149595350028, 0.009282933548092842, 0.005591308511793613, 0.005997172184288501, 0.005890017631463707, 0.0040907830349169675, 0.0031478576129302382, 0.0026597375981509686, 0.0020604411722160874, 0.001984844624530524, 0.0026883324142545463, 0.0022668901248835025, 0.002635354665108025, 0.0014977606595493853, 0.0032907798420637848, 0.0025660060113295914, 0.002956447342876345, 0.0015488857519812883, 0.002451306494185701, 0.004321457759942859, 0.003054099634755403, 0.0021885143243707715, 0.0015917857061140239, 0.001412626530509442, 0.0017109742329921573, 0.0021997321280650796, 0.002664222102612257, 0.001802927255630493, 0.0014584466931410133, 0.0012622127716895193, 0.0012016860127914697, 0.001164418034022674, 0.001278377539711073, 0.0011343752034008504, 0.00265736443689093, 0.002169720100937411, 0.002344213763717562, 0.0019024015404284001, 0.0013851174095179885, 0.0032375117007177323, 0.0026857995369937273, 0.0014138809987343849, 0.0012816894275601953, 0.001337196386884898]","[0.049546048045158386, 0.05143201102813085, 0.03977089375257492, 0.036071776101986565, 0.02416230986515681, 0.01953203169008096, 0.012423123388240734, 0.006291839449356, 0.004874863584215443, 0.0036414779412249723, 0.002013074622179071, 0.0016830134748791654, 0.0018702565381924312, 0.0015422378201037645, 0.001310872845351696, 0.001375751686282456, 0.0012214585828284423, 0.0011461959996571143, 0.0011870052743082244, 0.0010655639149869482, 0.001890487891311447, 0.0012980016181245446, 0.0009683168221575519, 0.001512402668595314, 0.0014743365269775193, 0.0014504608698189259, 0.001241291097054879, 0.001075866670968632, 0.0007021889711419741, 0.0009164927954164644, 0.000910113526818653, 0.0009407656422505776, 0.0009730978442045549, 0.0008340582717210054, 0.0006866492331027985, 0.000713079294655472, 0.0006383503205142915, 0.0006750972631076971, 0.0005811565982488295, 0.000819172205713888, 0.0022804446828862033, 0.001285954921816786, 0.0011122733897839983, 0.0009790804081906874, 0.0007122606039047241, 0.0009080938374002775, 0.0010612452945982416, 0.0008291405974887311, 0.0005875088972970843]",0.10697331730994514,0.5443000259924979,0.09385167442814685,0.5897052712790101,0.19123694603960611,0.8768082756391261,0.5264341957255337,0.27163840523696176,0.8644862766130316,31.85400778800249,cuda
MITDB,172_MITDB_id_3_Medical_tr_27274_1st_27374,SG,resnet18_autoencoder_progressive_unfreeze,128,37,37,64,150,0.001,"[0.06348388642072678, 0.046985446289181707, 0.03327096663415432, 0.02276656199246645, 0.01293226694688201, 0.007295198040083051, 0.005615050857886672, 0.0063570583239197734, 0.004507614672183991, 0.0027524501900188627, 0.002357033733278513, 0.0026917008915916087, 0.002599933464080095, 0.003266991872806102, 0.004694490577094257, 0.0029506067978218196, 0.0026039446238428354, 0.002551724575459957, 0.0034765727119520306, 0.0038028307259082793, 0.003969002771191299, 0.00434671260882169, 0.0019926075474359095, 0.0017432409338653087, 0.0018729609437286854, 0.0016119714826345443, 0.0013713576132431625, 0.0012180160847492516, 0.0008155768562573939, 0.0013386941398493945, 0.0014954651822336018, 0.002192151959752664, 0.001849801477510482, 0.0010904349386692048, 0.0011587469140067696, 0.001122299104463309, 0.0014726222434546798, 0.0014631388476118445, 0.0010324241535272448, 0.0012568663572892548, 0.0010344525158870964, 0.0007487028546165675, 0.0011668642226140946, 0.0024763546767644583, 0.0006544549512909725, 0.0009574047609930858, 0.0007433246995788067, 0.0005382595642004162, 0.0009406182798556983, 0.0004944423853885382, 0.0005017655435949564, 0.000533038517460227, 0.00036464222066570076, 0.0005815646756673232, 0.0007377121946774423, 0.0004518834641203284, 0.0003989766555605456, 0.00040847070049494506, 0.00033779601217247545, 0.0003270195506047457, 0.00128880243137246]","[0.04810191815098127, 0.04600019256273905, 0.04481718689203262, 0.029033760850628216, 0.04102617626388868, 0.010706797863046328, 0.008524976515521606, 0.005405184347182512, 0.0038179417606443167, 0.00258796033449471, 0.0016656762454658747, 0.0016672530910000205, 0.0012150707188993692, 0.001446345044920842, 0.003375421821450194, 0.0022754171707977853, 0.0019884707095722356, 0.0012348660578330357, 0.0011576251902927954, 0.0010911098021703463, 0.006811466611300905, 0.0028632494310537973, 0.0017621013879155119, 0.0012450579088181257, 0.000797662748179088, 0.000785550510045141, 0.0007389544431741039, 0.0006306791328825057, 0.0005673971415186921, 0.000535945922213917, 0.0016664394255106647, 0.0007736494881100953, 0.0010168350224072735, 0.0006996111866707603, 0.0007951580143223206, 0.0006235708715394139, 0.0005304220734008899, 0.000666523187343652, 0.0009560394488895932, 0.00045155662034327787, 0.0003972603105163823, 0.0003823313648657252, 0.0003581315492435048, 0.0005173832954217991, 0.0004882023010092477, 0.00038517780679588515, 0.00037714998082568246, 0.0003623626447127511, 0.0006042211704577009, 0.00036909680541915196, 0.00027808941861925024, 0.00026789142672593397, 0.00023895041279805204, 0.0002205579997583603, 0.00022666385727158436, 0.0002774554886855185, 0.000232242537701192, 0.00021904388268012553, 0.00020222333841957152, 0.00019400096304404238, 0.0002444640655691425]",0.10096762958681517,0.5545588746613146,0.11290113405414479,0.5993512053436227,0.25352065892839054,0.8819676123219287,0.54485049833887,0.3307735063050838,0.9214938158090191,41.54521891614422,cuda
MITDB,172_MITDB_id_3_Medical_tr_27274_1st_27374,SG,resnet18_autoencoder_differential_lr,128,37,37,64,100,0.001,"[0.06284246258437634, 0.05069866590201855, 0.03997216559946537, 0.025554821453988553, 0.018062777165323497, 0.008372240187600254, 0.005832025711424649, 0.005269167711958289, 0.003920043399557471, 0.0066732213832437996, 0.003942816169001162, 0.0031550510902889073, 0.002374132664408535, 0.0031059046741575003, 0.0028876472963020204, 0.002371090173255652, 0.002622031094506383, 0.0017514620791189372, 0.006372122128959745, 0.004575543967075646, 0.0030481853638775645, 0.0022129744873382153, 0.0014746479806490242, 0.002198521827813238, 0.0021635231212712826, 0.0017036431934684515, 0.0020073878578841685, 0.0021664817002601923, 0.0016664835857227445, 0.0015906579326838254, 0.00167722791666165, 0.0018190215458162128, 0.0016544419690035284, 0.0014448685047682374, 0.0014598634268622845, 0.0013780297653283925, 0.0013605278334580361, 0.0013653816073201596, 0.0010966324305627495, 0.0008359068480785937, 0.0008701784157892689, 0.001985141047043726, 0.0015782179951202124, 0.001434302469715476, 0.0012165450432803481, 0.0012932246550917625, 0.0008542634372133761, 0.0011489460885059088, 0.0018170682946220041, 0.001665873045567423]","[0.04599989950656891, 0.03903223822514216, 0.02845358910659949, 0.01791605694840352, 0.014173941997190317, 0.009913640096783638, 0.003002067950243751, 0.006363781945159038, 0.0018456010147929192, 0.0021490522970755896, 0.002418479726960262, 0.0021529014532764754, 0.0014257279690355062, 0.0015391100896522403, 0.004550578848769267, 0.0011674232858543594, 0.0013575366077323754, 0.001036407930466036, 0.0015303843344251316, 0.0034551584782699742, 0.0011619390764584143, 0.0009903386623288195, 0.0008689513391194245, 0.0008801130267481009, 0.0009059807052835822, 0.0008011161310908695, 0.0007696927253467342, 0.0009605385130271316, 0.0010275262175127864, 0.0008795845981997749, 0.0006993873006043335, 0.0009813063855593402, 0.0009641180125375589, 0.0008006272449468573, 0.0008242460705029467, 0.0005717517536443969, 0.0006756797859755655, 0.0006280762609094381, 0.0007100303773768246, 0.00046389847799825173, 0.0005154298463215431, 0.0007867030993414422, 0.0014933619725828369, 0.0006994660167644421, 0.0005509727246438464, 0.00044040730184254545, 0.0005807258033504089, 0.00038804060507876176, 0.0005613700292694072, 0.0008509319741278887]",0.08744744266410988,0.5386382939062806,0.09209636607715395,0.5828157888708914,0.22027411173042866,0.8940508516415699,0.520661157024793,0.3152737693438097,0.9260120846340779,36.14493609406054,cuda
MITDB,172_MITDB_id_3_Medical_tr_27274_1st_27374,SG,pvt_autoencoder_frozen,128,37,37,64,100,0.001,"[0.054968948289752004, 0.034388665668666364, 0.023272664844989778, 0.01947490144520998, 0.016208668146282433, 0.015104308817535638, 0.010861043026670814, 0.004582477128133177, 0.0037410171469673516, 0.002373582113068551, 0.0019752039341256024, 0.0017796328174881637, 0.0018601298856083305, 0.0016155693796463312, 0.0019344214466400444, 0.0019248920259997248, 0.0034632849507033824, 0.003435874730348587, 0.0040305366390384735, 0.001961363828741014, 0.00187769269105047, 0.001803832995938137, 0.0016027688281610609, 0.0016208870045375078, 0.0019992792687844483, 0.0016337468172423542, 0.0018827143474482, 0.001306365878554061, 0.0014283784897997976, 0.0011983727163169533, 0.0014469930669292808, 0.0010386565700173378, 0.0012432251125574112, 0.0011552518524695187, 0.001114430429879576, 0.0016477357130497694, 0.0014969701296649873, 0.0013943983300123363, 0.001432486274279654, 0.0008351338270585984, 0.0011369447049219162, 0.0008989193069282919]","[0.04009842872619629, 0.02232473250478506, 0.018678339819113415, 0.015839684444169205, 0.014660138015945753, 0.012277321269114813, 0.00735864353676637, 0.00641148133824269, 0.002290801222746571, 0.0017351110776265462, 0.0015111314908911784, 0.0011077095211173098, 0.0012251721539845069, 0.0009429476146275798, 0.0009633933853668472, 0.0015036915428936481, 0.0016588257470478613, 0.0020259168619910875, 0.0015478214481845498, 0.0012578882742673159, 0.0009435520817836126, 0.0009220234157207111, 0.0008526611685131987, 0.0007612608217944702, 0.0008454331352065007, 0.0009647601012450954, 0.0008895698701962829, 0.0007458531569379071, 0.0006666142144240439, 0.0007832250363814334, 0.0007209492420467237, 0.0006038968761761984, 0.0006139475347784659, 0.0007593338765824834, 0.0007189133514960607, 0.0008095030789263546, 0.0007410585337008039, 0.0007283515102850894, 0.0006464876350946724, 0.0006116903581035634, 0.0005973579245619476, 0.0005664820006738106]",0.10441202995803496,0.6172123778366854,0.11175060134757553,0.669699823389244,0.240155477639934,0.846135875151855,0.46385542168674654,0.2880118263283476,0.9144908437724544,30.858512772945687,cuda
MITDB,172_MITDB_id_3_Medical_tr_27274_1st_27374,SG,pvt_autoencoder_progressive_unfreeze,128,37,37,64,150,0.001,"[0.062409620732069016, 0.043241171166300774, 0.029962357692420484, 0.02609963659197092, 0.020044886879622935, 0.01714280331507325, 0.014992225635796785, 0.014244199171662331, 0.010294136311858892, 0.005070739844813943, 0.0032406349200755358, 0.0032558399718254803, 0.0026312126661650836, 0.00207914374768734, 0.002002258668653667, 0.0019241883186623455, 0.0018392949714325368, 0.0019300406915135682, 0.002815296803601086, 0.005018476094119251, 0.02945123165845871, 0.012477365648373961, 0.0037389392498880627, 0.0022804149659350513, 0.002443561085965484, 0.0021304290043190123]","[0.04434136922160784, 0.028215082362294197, 0.022310482958952587, 0.017828724657495815, 0.015473752282559872, 0.014220256668825945, 0.012912952341139317, 0.011818440010150274, 0.007333453589429458, 0.005495117045938969, 0.004623802068332831, 0.0021134885028004646, 0.0017653594647223751, 0.0015599947267522414, 0.0014289007134114702, 0.001165982335805893, 0.0013273846125230193, 0.0012533237459138036, 0.0035417115626235804, 0.003734693552056948, 0.01362407486885786, 0.005270126896599929, 0.006161272681007783, 0.001703975023701787, 0.0029958966188132763, 0.0016343483002856374]",0.09159653381997139,0.5523626792846952,0.10065883713695908,0.600999100061842,0.2359064394607145,0.8381662076786004,0.46760563380281656,0.29541782716250875,0.9219910440186943,21.429080063011497,cuda
MITDB,172_MITDB_id_3_Medical_tr_27274_1st_27374,SG,pvt_autoencoder_differential_lr,128,37,37,64,100,0.001,"[0.057355083711445334, 0.033179042488336564, 0.02414443325251341, 0.019153946824371815, 0.01805969011038542, 0.01662645498290658, 0.01561354547739029, 0.01522606797516346, 0.014225939474999904, 0.013696040399372578, 0.009324129205197096, 0.004701295425184071, 0.0044014959828928115, 0.003449406148865819, 0.0021812584367580713, 0.001997458830010146, 0.002254460717085749, 0.0014346531534101814, 0.0022879802621901036, 0.003060862701386213, 0.0022279824945144354, 0.001546999893616885, 0.001260133268078789, 0.0011520405096234754, 0.0007905710837803781, 0.0013099956617224962, 0.0012460810656193643, 0.0009444016497582198, 0.0014879979309625924, 0.0013464634772390126, 0.000937060231808573, 0.0009319260861957446, 0.0010293645493220538, 0.0018532615504227579, 0.0020922366995364426, 0.0013842733285855501, 0.0011244668334256859, 0.0012390221061650663, 0.0020540314144454896, 0.0015419471194036305, 0.0016266969498246909, 0.0012094649486243726]","[0.04179916034142176, 0.02684833233555158, 0.022039722030361492, 0.01590717025101185, 0.01643574982881546, 0.014139950275421143, 0.014399778408308824, 0.013515928760170937, 0.01253553293645382, 0.01586589217185974, 0.010045316070318222, 0.008266509355356296, 0.004830948853244384, 0.001770524346890549, 0.0013322421194364626, 0.0009742626377070943, 0.0008715712077294787, 0.0011276316363364458, 0.0013346122189735372, 0.0019546598584080734, 0.0012623221070195239, 0.001169398776255548, 0.000853132747579366, 0.0006129988663208982, 0.0005220405873842537, 0.0005517916870303452, 0.0005850875362132987, 0.0005176634488937756, 0.0006190752416538695, 0.0006146775558590889, 0.0005957456693674127, 0.0005025138282993188, 0.0004132194444537163, 0.0009143397522469362, 0.0017087142526482542, 0.0006741887385336062, 0.0004940586707865199, 0.0015149724980195363, 0.0015223411998401086, 0.001154385507106781, 0.0005550426625025769, 0.0004382888146210462]",0.11540424242455327,0.5271753248284519,0.1283881849405813,0.5728884605256931,0.276154070579392,0.896551724137931,0.6175771971496432,0.3308454581863933,0.9162292428993072,41.034848620183766,cuda
MITDB,172_MITDB_id_3_Medical_tr_27274_1st_27374,GASF,cnn_autoencoder,128,37,37,64,150,0.001,"[0.10476969555020332, 0.07547729387879372, 0.057712975144386294, 0.04490739479660988, 0.035265825875103476, 0.02868566121906042, 0.023531540855765344, 0.02056637965142727, 0.01733478708192706, 0.014964789897203446, 0.013310722075402737, 0.011370134260505437, 0.010079837404191494, 0.008405681978911162, 0.00808914373628795, 0.006975944014266133, 0.00647175177000463, 0.005634360667318106, 0.005796122690662741, 0.00499471970833838, 0.004594671912491322, 0.004611659003421665, 0.004336620797403157, 0.004138861689716578, 0.003946953034028411, 0.003675764659419656, 0.0034919815836474298, 0.00324396479409188, 0.003457133239135146, 0.003260880149900913, 0.0030793091282248497, 0.0029804296791553497, 0.002899153216276318, 0.003105360851623118, 0.0030614626593887806, 0.002842033514752984, 0.0027286744210869075, 0.002598096174187958, 0.002487282734364271, 0.002477758622262627, 0.0023080411949194966, 0.0025090564857237043, 0.002390207792632282, 0.002383097726851702, 0.0021845153300091625, 0.0022647421457804738, 0.0023273310041986408, 0.0023090785369277, 0.0022460436914116142, 0.002017191587947309, 0.001958765578456223, 0.002116501494310796, 0.001847231772262603, 0.0018400872591882943, 0.0019456375506706537, 0.001886159460991621, 0.001779825845733285, 0.0018399085500277578, 0.0017445281497202813, 0.0016393178724683822, 0.001713921711780131, 0.0016542901168577373, 0.0016923242481425404, 0.0017723567667417227, 0.001678465458098799, 0.0016667758580297231, 0.0015708682127296924, 0.0016782172257080673, 0.001951672858558595, 0.002432482806034386, 0.002128776349127293, 0.0018105286988429725, 0.0018744433065876365, 0.0015274893958121538, 0.0015931704314425589, 0.0015404813340865076, 0.0015382692217826843, 0.0014862578711472452, 0.0014480145298875868, 0.001490728947101161, 0.0013382900739088654, 0.0015815024613402783, 0.001510629744734615, 0.001460881216917187, 0.001495652738958597, 0.00142243392765522, 0.0014098172774538397, 0.0013792728423140943, 0.0013328786299098283, 0.0014006392448209226, 0.001311088993679732, 0.0015438824309967458, 0.0015298964804969727]","[0.10525920490423839, 0.08001949886480968, 0.057335020353396736, 0.03824430083235105, 0.030345698197682697, 0.02559421273569266, 0.02153007499873638, 0.019561514258384705, 0.01605472310135762, 0.014458773657679558, 0.013618461166818937, 0.011757316688696543, 0.010040867763261, 0.007964118694265684, 0.007614135121305783, 0.006640898218999307, 0.006274345175673564, 0.00540285153935353, 0.005420837551355362, 0.0048551612223188085, 0.004604509410758813, 0.004513028853883346, 0.004366044731189807, 0.0042577325366437435, 0.003940643820290764, 0.0038709857035428286, 0.0037440261027465263, 0.003549609255666534, 0.0037960605695843697, 0.0034059251192957163, 0.003383717887724439, 0.00334540211285154, 0.003363082262997826, 0.0033235310887296996, 0.0033010367769747972, 0.0032560734543949366, 0.0033246707947303853, 0.0031626151564220586, 0.002923628237719337, 0.0029479858931154013, 0.002915449052428206, 0.0028644807947178683, 0.002797416877001524, 0.0027921864918122687, 0.0028105396001289287, 0.002856590940306584, 0.0027996504213660955, 0.00311294950855275, 0.002858842567851146, 0.002908342983573675, 0.00259364644686381, 0.002514799746374289, 0.0025585381469378867, 0.002482345017294089, 0.0025193868981053433, 0.002465113609408339, 0.002532239848126968, 0.002488665981218219, 0.0024477182111392417, 0.0024154510659476123, 0.0023921227548271418, 0.0025048929577072463, 0.002350593451410532, 0.002359920802215735, 0.002418912791957458, 0.002341202770670255, 0.0023838200916846595, 0.002332117718954881, 0.0024491685908287764, 0.0025864404160529375, 0.002773258757467071, 0.002424924479176601, 0.002324236867328485, 0.0022964891977608204, 0.0022617514866093793, 0.002257154711211721, 0.002266051790987452, 0.0022429924768706164, 0.0023210109987606606, 0.0021948337089270353, 0.002214378366867701, 0.002197927407299479, 0.0022352770126114288, 0.0021794290902713933, 0.0022285672991226115, 0.002279926324263215, 0.0023434865288436413, 0.0021638167866816125, 0.0021476338927944503, 0.002277520252391696, 0.002161098721747597, 0.0021575697852919498, 0.0022992612794041634]",0.061815914272399776,0.675575808922919,0.07069366103385331,0.7255181356216882,0.11270294850321669,0.6334227755715359,0.20806658130601743,0.11700690354789102,0.7210300678242653,55.318476236891,cuda
MITDB,172_MITDB_id_3_Medical_tr_27274_1st_27374,GASF,resnet18_autoencoder_frozen,128,37,37,64,100,0.001,"[0.12580870613455772, 0.09127372577786445, 0.059905003383755685, 0.041847468540072444, 0.03385961316525936, 0.027782898023724557, 0.022454888746142387, 0.01947637815028429, 0.01725138034671545, 0.01590196620672941, 0.016006332729011773, 0.01587293539196253, 0.015033647045493126, 0.014127716794610024, 0.013697231002151967, 0.01413437370210886, 0.012134566530585289, 0.011316129285842181, 0.011055104993283748, 0.011455307621508837, 0.011931711249053479, 0.011128030996769667, 0.01141747012734413, 0.01119259772822261, 0.010545375663787127, 0.009916936326771975, 0.010465373005717992, 0.010149137768894433, 0.010123407561331987, 0.011358147673308849, 0.01229639956727624, 0.011198911909013986, 0.013099862448871135, 0.009897225629538297, 0.009232045849785209, 0.009056649310514331, 0.00857312441803515]","[0.12311181426048279, 0.08869451036055882, 0.06878611445426941, 0.05229311560591062, 0.042041064550479255, 0.035273320972919464, 0.02827167510986328, 0.02400827966630459, 0.019173148398598034, 0.0170548049112161, 0.017086042712132137, 0.016909585644801457, 0.016977918334305286, 0.0162802351017793, 0.01675169604520003, 0.016492578200995922, 0.01651032983014981, 0.01645667975147565, 0.016138082991043728, 0.015870853637655575, 0.015788734580079716, 0.01645336952060461, 0.015264476339022318, 0.015198410799105963, 0.015159212363262972, 0.01470485453804334, 0.014443227710823217, 0.014633433893322945, 0.015434859320521355, 0.014521325627962748, 0.016219773640235264, 0.015183570484320322, 0.01535354337344567, 0.014931929608186087, 0.014787128816048304, 0.014788666119178137, 0.01448379767437776]",0.06544870995022445,0.6918809001759092,0.07506032498193169,0.7388508731555811,0.1295696499908194,0.6740720401387883,0.23655913978494578,0.13551535628839576,0.7461648278417241,26.301693386165425,cuda
MITDB,172_MITDB_id_3_Medical_tr_27274_1st_27374,GASF,resnet18_autoencoder_progressive_unfreeze,128,37,37,64,150,0.001,"[0.11045237109065056, 0.0826176017522812, 0.058767122030258176, 0.0409435722976923, 0.03201751802116633, 0.02703588120639324, 0.0217309957370162, 0.021153117902576922, 0.018187313247472046, 0.015707911271601916, 0.01591548612341285, 0.014186325389891863, 0.01357578495517373, 0.013015639595687389, 0.01596459113061428, 0.015125322993844748, 0.013117079809308051, 0.013856734149158001, 0.015371400769799948, 0.013273740466684104, 0.014176501147449016, 0.013478021416813136, 0.01208510370925069, 0.012238774914294481, 0.011068329308182, 0.0109001524746418, 0.009901658538728953, 0.009848259296268225, 0.009983511827886104, 0.008983430825173855, 0.008413288695737719, 0.00869343993254006, 0.007864104770123958, 0.007857287069782615, 0.007640453753992915, 0.0070035361219197515, 0.006878256658092141, 0.006725450744852424, 0.0062176894396543505, 0.006203248072415591, 0.006024859892204404, 0.005367948859930039, 0.005714612500742078, 0.00522269462235272, 0.0054080241825431585, 0.0055507590062916275, 0.005258297314867377, 0.0054114642553031445, 0.004831785499118268, 0.004845060175284743, 0.0047395322006195785, 0.004513511317782104, 0.004302966431714595, 0.004041148629039526, 0.004060165164992214, 0.004052351927384734, 0.003958401363343, 0.003928016754798591, 0.003665327024646103, 0.0035618494730442762, 0.003775619762018323, 0.0037005164427682757, 0.0036573374411091207, 0.0034563339781016112, 0.0034049826906993987, 0.003606750979088247, 0.003168883267790079, 0.0030871761497110128, 0.0026266066590324042, 0.0027774448273703454, 0.0026648634811863303, 0.0027585312724113463, 0.002594016259536147, 0.0026566136861220003, 0.0025965285720303656, 0.0025452229427173735, 0.0024644930381327868, 0.0024503095308318736, 0.0024879256030544638, 0.0024139158078469334, 0.0023165250197052954, 0.0022362793912179767, 0.002243660914245993, 0.0022317162016406654, 0.0020903289667330684, 0.002242724387906492, 0.00199313759803772, 0.002098633977584541]","[0.10606281210978825, 0.08523284643888474, 0.05475534498691559, 0.045975388338168464, 0.042014935364325844, 0.03381988778710365, 0.030309725552797318, 0.02260897494852543, 0.019299411525328953, 0.01787460595369339, 0.01661799754947424, 0.01594667633374532, 0.01598635595291853, 0.016359794264038403, 0.01745505506793658, 0.01741002748409907, 0.015923393579820793, 0.016215171044071514, 0.015290954460700354, 0.016339559108018875, 0.01643030655880769, 0.015058772017558416, 0.013063456863164902, 0.013187427073717117, 0.013506061397492886, 0.01224700640887022, 0.012249684892594814, 0.013436879962682724, 0.01101580262184143, 0.01152380183339119, 0.011126882396638393, 0.010938944295048714, 0.010507972911000252, 0.010570350413521131, 0.010570992715656757, 0.01019265316426754, 0.009979559729496637, 0.009911832710107168, 0.009880846676727137, 0.009657348816593489, 0.009586155414581299, 0.009832844448586306, 0.00942231280108293, 0.009580791927874088, 0.009198534147193035, 0.009867335359255472, 0.010253309893111387, 0.009514395147562027, 0.009442492388188839, 0.009282784536480904, 0.008791334306200346, 0.009260196549197039, 0.008695291976133982, 0.008606153229872385, 0.008311453275382519, 0.008624693223585686, 0.00888332724571228, 0.009017167302469412, 0.008347007756431898, 0.008390695167084536, 0.00813382693255941, 0.008404995469997326, 0.0086233865780135, 0.008134803113838037, 0.008215860463678837, 0.008217112471659979, 0.008517379717280468, 0.008504072514673075, 0.007997417512039343, 0.00792001886293292, 0.0077989113827546435, 0.007836038867632547, 0.008014891762286425, 0.007937423263986906, 0.008048817360152801, 0.007926941228409609, 0.007899033216138681, 0.007651095589001973, 0.007704065181314945, 0.007840573166807493, 0.00790458886573712, 0.007797242763141791, 0.007581546747436126, 0.007721866015344858, 0.007868923712521791, 0.007780998945236206, 0.00779771168405811, 0.00792182298998038]",0.07005307901672228,0.7082843855369971,0.08087000819972272,0.754448074115222,0.1299399761092875,0.6613076647381086,0.22836937539078467,0.14257265647841763,0.7422106434824168,65.66742511489429,cuda
MITDB,172_MITDB_id_3_Medical_tr_27274_1st_27374,GASF,resnet18_autoencoder_differential_lr,128,37,37,64,100,0.001,"[0.11510248109698296, 0.0774208962917328, 0.05178675316274166, 0.03902725875377655, 0.031116103194653986, 0.024688450060784815, 0.02029253225773573, 0.018244551494717598, 0.016215502936393022, 0.015687691606581212, 0.01370278736576438, 0.012960442248731852, 0.012256007082760334, 0.0115421574562788, 0.010889554396271706, 0.010720786545425654, 0.011201384477317333, 0.009893803484737873, 0.009733990533277392, 0.009536250773817301, 0.009382808022201062, 0.009455036465078592, 0.009094633720815181, 0.009841141384094953, 0.010442897351458669, 0.010187704535201191, 0.008650724915787578, 0.008649414824321865, 0.007660563196986913, 0.008117106277495623, 0.007562278723344207, 0.00797752314247191, 0.007745312433689833, 0.007071619667112827, 0.006812452711164952, 0.006595821445807814, 0.006076485849916935, 0.006129225110635161, 0.0064803868997842075, 0.006267793709412217, 0.0054187396541237835, 0.005149145796895027, 0.0050219072261825206, 0.005200525396503508, 0.0047571280039846895, 0.004557225294411183, 0.004534932947717607, 0.004413086175918579, 0.004586361604742706, 0.004218059498816729, 0.004704306507483125, 0.004405710659921169, 0.004099315498024225, 0.003985580359585583, 0.003901859000325203, 0.00411855464335531, 0.003545417496934533, 0.0032350539462640882, 0.003568149171769619, 0.0032411856343969704, 0.0033159666461870076, 0.003178715892136097, 0.0032816515769809483, 0.0033185116481035948, 0.0029293322237208485, 0.003164124395698309, 0.0032138714799657465, 0.0028605134692043068, 0.002787716663442552, 0.0028041601181030273, 0.002864309202414006, 0.002761965664103627, 0.0025891039753332735, 0.002775094169192016, 0.0027762592071667314, 0.002603666530922055, 0.002493479382246733, 0.0026137880515307186, 0.0027248823549598455, 0.002588258543983102, 0.0024065571487881243, 0.0023379331920295953, 0.0023438904201611875, 0.002353852253872901]","[0.11645198116699855, 0.07584815224011739, 0.04774165898561478, 0.03419151529669762, 0.025288158406813938, 0.020511760065952938, 0.018112840751806896, 0.016384828835725784, 0.015816187486052513, 0.014829293514291445, 0.014161302708089352, 0.01266209315508604, 0.012250863946974277, 0.012563657326002916, 0.011902874956528345, 0.011254578518370787, 0.011144639924168587, 0.011267720100780329, 0.0110353147611022, 0.011101809951166311, 0.010946005582809448, 0.011058477684855461, 0.011613942682743073, 0.011569667607545853, 0.011833641057213148, 0.010756037818888823, 0.010401849014063677, 0.009934440565605959, 0.010131534499426683, 0.010054339033861956, 0.009603964785734812, 0.0097694614281257, 0.00921013361463944, 0.00906057438502709, 0.008793548370401064, 0.008744846098124981, 0.008672263318051895, 0.008566072210669518, 0.008519854862242937, 0.008672563203920921, 0.00861850039412578, 0.00841164542362094, 0.008448838877181212, 0.008426910576721033, 0.008161473708848158, 0.0083736937182645, 0.00798050764327248, 0.00787847333898147, 0.008131276660909256, 0.008196178047607342, 0.008327850451072058, 0.0081488525805374, 0.00811899205048879, 0.007887201538930336, 0.00778797563786308, 0.0077003175392746925, 0.007717062098284562, 0.0077709768277903395, 0.007618272211402655, 0.007761168448875348, 0.007557703802982966, 0.00786869584893187, 0.00733119264865915, 0.007801431386421124, 0.007202306296676397, 0.007296313686917226, 0.007381989775846402, 0.007072825916111469, 0.007148733362555504, 0.007111329274872939, 0.007173882642139991, 0.0071314422724147635, 0.007092661845187346, 0.006908329048504432, 0.007003425775716702, 0.007130862834552924, 0.007179581715414922, 0.0071417576012512045, 0.007010232036312421, 0.007143107398102681, 0.007004855355868737, 0.006982380213836829, 0.006905583354334037, 0.006915767677128315]",0.07536145849443909,0.7019941064433769,0.07519890140169903,0.7459896595429433,0.12175863329421799,0.6891048077730798,0.3111111111111106,0.1361101417255722,0.7289546322582384,65.03194532101043,cuda
MITDB,172_MITDB_id_3_Medical_tr_27274_1st_27374,GASF,pvt_autoencoder_frozen,128,37,37,64,100,0.001,"[0.12161628305912017, 0.08447797670960426, 0.057003927603363994, 0.03968060724437237, 0.029171247966587543, 0.02256939820945263, 0.01934721935540438, 0.016520519647747277, 0.014539527799934148, 0.013686101417988539, 0.013466851599514485, 0.012031382508575916, 0.011020849552005529, 0.010339521430432796, 0.009900134801864625, 0.009658049233257771, 0.008949254406616092, 0.008973658457398415, 0.008519265335053205, 0.008544223196804524, 0.008706524921581148, 0.008666867669671775, 0.007787780603393912, 0.007442458113655448, 0.00715028983540833, 0.007303692074492574, 0.0063648677431046964, 0.00629290328361094, 0.006330355582758784, 0.005993981054052711, 0.005930207343772054, 0.005392329255118966, 0.0049639592412859205, 0.004576905211433768, 0.004567316803149879, 0.004328454378992319, 0.004410965275019408, 0.0038206723053008317, 0.0037537452531978487, 0.003584727365523577, 0.0035648741526529194, 0.003781216428615153, 0.0034426417318172754, 0.0034577038139104845, 0.0031156252371147275]","[0.11946385105450948, 0.0855627531806628, 0.04815333212415377, 0.03453451581299305, 0.027031082659959793, 0.022646226609746616, 0.018695586671431858, 0.017534440383315086, 0.01596475796153148, 0.016069139664371807, 0.01453025018175443, 0.014252476704617342, 0.01362980001916488, 0.013307753950357437, 0.012925139938791593, 0.01247685526808103, 0.012617578109105429, 0.012397757110496363, 0.01210042896370093, 0.012457477860152721, 0.011962931913634142, 0.013087792632480463, 0.011790121905505657, 0.012086647873123487, 0.011967265047132969, 0.0117195596297582, 0.011510945235689482, 0.01111709512770176, 0.011722982550660769, 0.011724699599047502, 0.011640786193311214, 0.011191846802830696, 0.011275271574656168, 0.011261713380614916, 0.010656708230574926, 0.010773242761691412, 0.010703179985284805, 0.01070776799072822, 0.010675656609237194, 0.010868973098695278, 0.010598692732552687, 0.011006721605857214, 0.011184637124339739, 0.010918472583095232, 0.010586839790145556]",0.09391777878397257,0.7107674152223132,0.0930015374879404,0.7570047081769901,0.15549846133484133,0.7917773529630825,0.4210526315789469,0.1984333287268797,0.7879041613457983,34.83623897400685,cuda
MITDB,172_MITDB_id_3_Medical_tr_27274_1st_27374,GASF,pvt_autoencoder_progressive_unfreeze,128,37,37,64,150,0.001,"[0.11066201776266098, 0.07755283787846565, 0.05387876108288765, 0.04002153985202313, 0.029873385652899744, 0.023090352304279804, 0.01889949440956116, 0.016701902821660043, 0.014492831286042928, 0.01301108868792653, 0.012460085283964872, 0.011462121270596981, 0.011973264534026385, 0.010313810966908931, 0.010233240015804768, 0.009514176798984409, 0.009321839734911918, 0.008864472340792417, 0.009004376269876957, 0.009320937469601632, 0.026847023889422415, 0.015397085808217525, 0.012351329252123833, 0.011197686940431596, 0.009696145495399832, 0.008806320605799556, 0.008516873000189662, 0.008391111809760331, 0.0077461679466068745, 0.007225639885291457, 0.007004979951307178, 0.007159257447347045, 0.006670532561838627, 0.0069387557450681925, 0.0068064163438975814, 0.006618060916662216, 0.006848921207711101, 0.006810890138149261, 0.006168204545974732, 0.00544624614994973, 0.005388288595713675, 0.0048705997411161665, 0.004893707484006882, 0.00460975719615817, 0.00466241636313498, 0.004633356630802154, 0.003926802473142743, 0.0034957344410941004, 0.0034316998906433584, 0.0033765408210456372, 0.0034707148326560853, 0.0031723175197839737, 0.003297810209915042, 0.003648046520538628, 0.004091905569657684, 0.004460919764824212, 0.003910871292464435, 0.003756127250380814, 0.0034448244841769338]","[0.1100727766752243, 0.07619128872950871, 0.04332703724503517, 0.034032419323921204, 0.02729841818412145, 0.023857918257514637, 0.019407004117965698, 0.01796510225782792, 0.015954429594178993, 0.01599838336308797, 0.014575268141925335, 0.013998872600495815, 0.013537821670373281, 0.0134097704042991, 0.01294374248633782, 0.01285126805305481, 0.012474100105464458, 0.012579978443682194, 0.01251080073416233, 0.013456979766488075, 0.02831778923670451, 0.014967648933331171, 0.01268420492609342, 0.011406133261819681, 0.011319556273519993, 0.010235832383235296, 0.009781625432272753, 0.009950926837821802, 0.009223341010510921, 0.00946387213965257, 0.00940819876268506, 0.009391618892550468, 0.008702291641384363, 0.009096916920195023, 0.009273363587756952, 0.009036201983690262, 0.008642449664572874, 0.008805919283380112, 0.008772138816614946, 0.008836960575232903, 0.008280192657063404, 0.007969926732281843, 0.008054275220880905, 0.00803992742051681, 0.008206882514059544, 0.007854046455274025, 0.0075101192730168504, 0.007438976628084977, 0.0074067432433366776, 0.0075742509216070175, 0.007584610488265753, 0.007635115024944146, 0.0073534005011121435, 0.007809104242672523, 0.008036141283810139, 0.008049374601493279, 0.008484935543189446, 0.00781921437010169, 0.0075728390365839005]",0.07786610808469993,0.697006843099432,0.08297290039485031,0.7457678815470775,0.12666639996575751,0.7223240889296356,0.3182232247429831,0.1587746949637565,0.7358099790685728,52.96875697001815,cuda
MITDB,172_MITDB_id_3_Medical_tr_27274_1st_27374,GASF,pvt_autoencoder_differential_lr,128,37,37,64,100,0.001,"[0.12678923904895784, 0.09480761587619782, 0.0627463050186634, 0.042651550844311714, 0.030228644795715808, 0.022679395973682404, 0.01815224774181843, 0.015682857483625412, 0.014314860105514526, 0.01357736885547638, 0.011754642985761166, 0.010997393634170294, 0.010473877191543579, 0.010460791643708944, 0.010742228850722313, 0.010990335326641797, 0.010076760640367865, 0.009668225701898337, 0.009002259792760014, 0.00879232157021761, 0.009244551369920372, 0.008732727961614728, 0.00857685529626906, 0.008454262744635344, 0.007769347564317286, 0.008354907389730215, 0.007987139327451587, 0.007623671134933829, 0.007208396820351482, 0.007907002745196224, 0.006777802109718322, 0.007115541631355882, 0.006284941826015711, 0.006705672899261117, 0.00613076826557517, 0.005933097982779145, 0.00573334121145308, 0.005974091961979866, 0.005401467904448509, 0.005360393039882183, 0.00511919166892767, 0.004985909583047033, 0.004834409384056926, 0.004667319264262915, 0.004793364880606532, 0.005167475994676351, 0.004575424245558679, 0.004163499269634485, 0.003909725253470242, 0.0037930884165689347, 0.0032524088397622108, 0.003193069016560912, 0.0032112063374370335, 0.003063891036435962, 0.0029097722843289377, 0.003045841143466532, 0.0028871371876448395, 0.002794793643988669, 0.002960857911966741, 0.0027892444049939513, 0.0026054643793031575, 0.002614793158136308, 0.002809507865458727, 0.002600432583130896, 0.0026728934375569225, 0.002558637969195843, 0.002596378210000694, 0.002381120156496763, 0.0026213614270091056, 0.0027358307968825104, 0.0023707553278654813, 0.0023282645270228386, 0.002424379123840481, 0.002242614619899541, 0.002266381215304136, 0.0020496101002208888]","[0.12669289857149124, 0.09154962251583736, 0.0507711668809255, 0.03526855632662773, 0.027891536553700764, 0.020671920229991276, 0.01713156731178363, 0.015577885632713636, 0.01378211130698522, 0.012850166608889898, 0.01175827719271183, 0.011238398651281992, 0.010755360126495361, 0.010431901551783085, 0.012153426185250282, 0.011259558610618114, 0.010234018787741661, 0.010178875798980394, 0.009737613300482431, 0.009453457780182362, 0.01013850886374712, 0.009906007287402948, 0.009465926637252172, 0.009864435841639837, 0.008880830059448877, 0.009180601686239243, 0.008962263663609823, 0.008633047031859556, 0.008473355323076248, 0.008736863111456236, 0.007912517990916967, 0.008248165715485811, 0.007819559735556444, 0.007861188768098751, 0.008188660101344189, 0.00771356513723731, 0.007895398419350386, 0.007877318654209375, 0.007736525343110164, 0.008281720957408348, 0.007239725751181443, 0.007349062400559585, 0.007325792529930671, 0.007495670889814694, 0.007386525937666495, 0.007792677575101455, 0.007833857399721941, 0.007150429921845595, 0.007027303334325552, 0.0068289122233788175, 0.006888124626129866, 0.006768425460904837, 0.006763615800688664, 0.006773907536019881, 0.006750577750305335, 0.006723362021148205, 0.006751807561765115, 0.006748843006789684, 0.006811922260870536, 0.006787704769521952, 0.0066654545565446215, 0.006626493607958158, 0.006667788450916608, 0.006723823646704356, 0.006787916800628106, 0.006512330379337072, 0.006557831851144631, 0.0066413250751793385, 0.0067068336841960745, 0.006673872626076142, 0.0068304697051644325, 0.0067267585545778275, 0.006562524785598119, 0.006533789603660504, 0.006569865625351667, 0.006526212518413861]",0.06908484180160493,0.6961548620402833,0.07599902251465641,0.7440651191131961,0.1239415242263763,0.6632152262389275,0.2100004328121036,0.12491613218696786,0.7367295520579688,72.67386751505546,cuda
MITDB,172_MITDB_id_3_Medical_tr_27274_1st_27374,GADF,cnn_autoencoder,128,37,37,64,150,0.001,"[0.0985993780195713, 0.07666523605585099, 0.058899734541773795, 0.04460858702659607, 0.03417810797691345, 0.0271379966288805, 0.022200274281203747, 0.018484733998775482, 0.014551998488605023, 0.011718118377029896, 0.009926707483828068, 0.008564102929085493, 0.007657536072656512, 0.006785299070179463, 0.005897928448393941, 0.005315636098384857, 0.004961559129878878, 0.004523499519564211, 0.004243570915423334, 0.003940882510505617, 0.0037397860549390318, 0.0036414689617231487, 0.003565227030776441, 0.0033653117483481766, 0.003119133017025888, 0.0031057548942044376, 0.003045052639208734, 0.0028604889987036584, 0.0027248435420915485, 0.0027055690297856927, 0.0025925910566002132, 0.0027433746960014104, 0.00257827159948647, 0.0025238767731934784, 0.002402193972375244, 0.002357846463564783, 0.0024283127509988844, 0.0023655011085793377, 0.002288287808187306, 0.0022740023559890687, 0.002220309979747981, 0.002131711377296597, 0.0021956323646008967, 0.0022186774760484694, 0.002239868917968124, 0.0020838108961470426, 0.002073820086661726, 0.0019604169065132737, 0.0018313652952201664, 0.001827091258019209, 0.0017374470480717719, 0.0018426915630698204, 0.0018005015794187785, 0.0018221592996269464, 0.0017453096224926412, 0.0017575669335201383, 0.0017113564303144813, 0.0018417010665871202, 0.0019217486376874148, 0.0019692962523549795, 0.0017752792336978018, 0.001638818858191371, 0.0016578491544350983, 0.001573199115227908, 0.0015366612700745464, 0.0014944459311664105, 0.0014763747924007476, 0.0013696843234356493, 0.0013618224882520735, 0.001346785482019186, 0.001384304603561759, 0.0013433405314572156, 0.0013269144226796925, 0.0013001857791095973, 0.0013189132907427848, 0.0012971484451554717, 0.001354661665391177, 0.0013107939041219652, 0.0013534773839637636, 0.0013305363710969687, 0.0012288572557736187, 0.001183159340871498, 0.001150768413208425, 0.0011514584301039576, 0.0012292156578041613, 0.0011150343343615532, 0.001114244683412835, 0.0011442692659329623, 0.0011070530104916542, 0.0011285482672974468, 0.0010996997880283743, 0.0010909470147453249, 0.001077154214726761, 0.0010411567287519573, 0.001042751333443448, 0.0011191789293661714, 0.00109151343931444, 0.0010454613948240876, 0.0010987453046254815, 0.0010319246561266483, 0.0010333921003621072, 0.0010022224974818527]","[0.09737824648618698, 0.0759585052728653, 0.05143289268016815, 0.035024953385194145, 0.027353409056862194, 0.024424226954579353, 0.02173812376956145, 0.022680350268880527, 0.019415816913048427, 0.010921179006497065, 0.008598463299373785, 0.007875132064024607, 0.006851033152391513, 0.0068307011388242245, 0.005636099725961685, 0.005218230963995059, 0.00506387169783314, 0.004379908166204889, 0.004160445028295119, 0.004002498618016641, 0.0036707527469843626, 0.0036055338568985462, 0.00343363832992812, 0.003350939912100633, 0.0032249110906074443, 0.0031276244359711805, 0.003130328298235933, 0.002945979513848821, 0.002864157703394691, 0.0028240528578559556, 0.002766944390411178, 0.0029511460258315005, 0.002768474087739984, 0.00268044190791746, 0.0026540799687306085, 0.002696375207354625, 0.0027373680689682565, 0.0026467773132026196, 0.002652630442753434, 0.002484209525088469, 0.002515967935323715, 0.0026025628515829644, 0.002418145459766189, 0.0028418293222784996, 0.002403128736962875, 0.002323315905717512, 0.0023351092046747604, 0.0022666018145779767, 0.002200955214599768, 0.0021880610923593244, 0.0022738109497974315, 0.0022410182670379677, 0.002151458407752216, 0.0021110387363781533, 0.0021152016318713627, 0.0020824438349033394, 0.0021455183159559965, 0.0022864433315893016, 0.002138732544456919, 0.0021691181852171817, 0.002087613994566103, 0.0020227351148302355, 0.002070548439708849, 0.0019517466813946764, 0.0019875971289972463, 0.0019385335423673193, 0.0018897639044250052, 0.0018378987054650981, 0.0018385922303423285, 0.0018105798323328297, 0.0017704383159677188, 0.0018208069959655404, 0.0017708032003914316, 0.0017192361410707235, 0.0017477863778670628, 0.0017497440955291192, 0.0018845981685444713, 0.0017543657838056486, 0.0017946511895085375, 0.0018030738380427163, 0.00169495795853436, 0.0016781039303168654, 0.001629303558729589, 0.0016269768433024485, 0.0016649895114824176, 0.001721737130234639, 0.0016167010956754286, 0.0016700940517087777, 0.0016005920867125194, 0.001590475207194686, 0.001582900295034051, 0.0015865355186785262, 0.001578711128483216, 0.0015603142092004418, 0.0015699894865974784, 0.0015743344944591324, 0.0015650388086214662, 0.001568815321661532, 0.0016012888324136536, 0.0015363158114875357, 0.0015406292707969744, 0.0015250808016086619]",0.05437490658752911,0.677768384200305,0.06646956076553259,0.7316455259191375,0.10525288930830975,0.5697770945426595,0.13360539620238343,0.09367087922367792,0.7169526939274075,61.473091502906755,cuda
MITDB,172_MITDB_id_3_Medical_tr_27274_1st_27374,GADF,resnet18_autoencoder_frozen,128,37,37,64,100,0.001,"[0.10224217697978019, 0.08537807688117027, 0.0682178370654583, 0.046322258189320564, 0.03175019305199385, 0.02931883092969656, 0.027908628061413764, 0.024311473965644835, 0.01945913378149271, 0.01836826605722308, 0.016878202836960555, 0.017824629694223403, 0.016469151619821785, 0.01581441592425108, 0.015486958250403405, 0.015896808169782162, 0.015509937051683664, 0.014639609679579734, 0.014093771390616894, 0.014327522553503513, 0.014094948023557662, 0.012606943864375353, 0.01244513401761651, 0.012228580005466939, 0.011203615926206112, 0.011157555039972067, 0.010951410280540586, 0.011213678587228059, 0.011503942310810089, 0.010364928748458624, 0.013881386443972587, 0.016172686591744423, 0.01282047787681222, 0.01233957102522254, 0.010978433676064015, 0.010487486701458692]","[0.0979732225338618, 0.08317641665538152, 0.07157910366853078, 0.0592525377869606, 0.048332199454307556, 0.03933937226732572, 0.028769517317414284, 0.028999364003539085, 0.022008148953318596, 0.019690103518466156, 0.020368967205286026, 0.01884218119084835, 0.01830754242837429, 0.018349377748866875, 0.01867996621876955, 0.019519944675266743, 0.01790500618517399, 0.021540941049655277, 0.017958009615540504, 0.018144199003775913, 0.01640774899472793, 0.0164434468994538, 0.015963492915034294, 0.015200761146843433, 0.015161905127267042, 0.014878825594981512, 0.015660253042976063, 0.015913565022250015, 0.015708140718440216, 0.015224905374149481, 0.01518238273759683, 0.019327765330672264, 0.01677164901047945, 0.015602660986284414, 0.015105604194104671, 0.01511460201193889]",0.07187149579267701,0.7107686028640167,0.08291721777037038,0.7604643454667519,0.13864045578458895,0.7367370364825073,0.22450584059434012,0.15828768667652782,0.7962187493605962,25.352433731080964,cuda
MITDB,172_MITDB_id_3_Medical_tr_27274_1st_27374,GADF,resnet18_autoencoder_progressive_unfreeze,128,37,37,64,150,0.001,"[0.1010599784553051, 0.07945525497198105, 0.061621348932385446, 0.04014100693166256, 0.02917303889989853, 0.02363626901060343, 0.018952828273177146, 0.020367057248950004, 0.018893466144800187, 0.017746093031018973, 0.017217643558979034, 0.015194821823388337, 0.015098912920802832, 0.014841900113970042, 0.014337130449712276, 0.014897483680397273, 0.01941765137016773, 0.01877155378460884, 0.014710553828626871, 0.013698057550936938, 0.015951610077172516, 0.01505234269425273, 0.013039118982851506, 0.0115498180501163, 0.011140593886375427, 0.011405661329627037, 0.010169521067291498, 0.009093262581154704, 0.009459011629223824, 0.008548635803163052, 0.00819441257044673, 0.007463784841820598, 0.007019394775852561, 0.007148202322423458, 0.00767329316586256, 0.00787227782420814, 0.006636956287547946, 0.006725906347855926, 0.005727742007002235, 0.0059004782000556585, 0.0048656833358109, 0.0046776226721704, 0.00452561853453517, 0.004725000634789467, 0.004464067262597382, 0.004181347624398768, 0.004078428680077195, 0.0041200988693162795, 0.004656095034442842, 0.004484704066999257, 0.004278401681222022, 0.004025061940774321, 0.0040264428360387685, 0.003617050009779632, 0.003586994321085513]","[0.09748316804567973, 0.07850240419308345, 0.07754683991273244, 0.05048122381170591, 0.043767242381970085, 0.0379082461198171, 0.030377067625522614, 0.026505302016933758, 0.023376016567150753, 0.021317845210433006, 0.018966285201410454, 0.01800508952389161, 0.0173772011573116, 0.017703790838519733, 0.016628474307556946, 0.01595178774247567, 0.022103847935795784, 0.020833561196923256, 0.017988416055838268, 0.01714196273436149, 0.018786075835426647, 0.016562307253479958, 0.013302349175016085, 0.012502539592484633, 0.012223851556579271, 0.012132884313662847, 0.011544990353286266, 0.011323529140402874, 0.011486769343415896, 0.011394219473004341, 0.011797502792129913, 0.010844367401053509, 0.010975662618875504, 0.010852848645299673, 0.01207012745241324, 0.011577882338315248, 0.010975093270341555, 0.011172061786055565, 0.010045289061963558, 0.010159259972472986, 0.009936244382212559, 0.00963486327479283, 0.009560703455160061, 0.009750429075211287, 0.00928206384802858, 0.009696492149184147, 0.009423325924823681, 0.00942791144674023, 0.01003505103290081, 0.009777697268873453, 0.009913652203977108, 0.009388072260965904, 0.009655040223151445, 0.00946016563102603, 0.009388014984627565]",0.06315161206376035,0.6956847047063136,0.07481550600210378,0.7448795966717708,0.12167347615738867,0.6530957414678344,0.18532097860142618,0.10800203274493766,0.7408024252230407,40.736114968080074,cuda
MITDB,172_MITDB_id_3_Medical_tr_27274_1st_27374,GADF,resnet18_autoencoder_differential_lr,128,37,37,64,100,0.001,"[0.09567285478115081, 0.07108652591705322, 0.05687247775495052, 0.03589611928910017, 0.023941649682819845, 0.01914546675980091, 0.016450617741793395, 0.014422487933188677, 0.014377030543982983, 0.014906009752303362, 0.013759977649897337, 0.0135147700086236, 0.012874058168381452, 0.012028918415308, 0.011570437066257, 0.011297692824155093, 0.010746430698782205, 0.011011230759322643, 0.01042423639446497, 0.010891737788915635, 0.011068032588809729, 0.009569605276919902, 0.009737470000982285, 0.009848790289834142, 0.00904956073500216, 0.008833213523030282, 0.00849674385972321, 0.008754647942259908, 0.00781732234172523, 0.007350162183865905, 0.006945235608145595, 0.006664004269987344, 0.00651939264498651, 0.0065663998480886224, 0.006610388914123177, 0.006528833694756031, 0.006608947087079287, 0.005968489218503237, 0.005549322115257382, 0.005311466078273952, 0.00491628022864461, 0.004957231623120606, 0.004699293058365583, 0.0044887888245284556, 0.004484225576743483, 0.004156770184636116, 0.003979364898987115, 0.003871793858706951, 0.004048638069070876, 0.0038998474134132265, 0.0037965374998748303, 0.003538698935881257, 0.003781407605856657, 0.0035239217337220906, 0.003573277313262224, 0.0034642135491594673, 0.003497797390446067, 0.003093662904575467, 0.0029485136969015003, 0.0031946490751579406]","[0.09382369617621104, 0.0625015248854955, 0.04645349706212679, 0.03251414746046066, 0.01969524783392747, 0.018118166054288547, 0.015425382492442926, 0.014540897371868292, 0.01446580234915018, 0.013599384886523088, 0.013156528895099958, 0.012883109971880913, 0.012223226018249989, 0.011482121733327707, 0.011797511950135231, 0.011258710486193499, 0.011048978505035242, 0.011120445095002651, 0.010838647528241077, 0.010989829897880554, 0.010646317464609941, 0.010663144756108522, 0.01035746606066823, 0.010138434047500292, 0.009999410714954138, 0.00975488405674696, 0.009959506647040447, 0.009318227414041758, 0.009590459056198597, 0.0091489067611595, 0.009215994582821926, 0.009075604379177094, 0.008743563356498877, 0.008612762826184431, 0.008828950114548206, 0.00907675844306747, 0.008861391339451075, 0.00859582501774033, 0.008421184029430151, 0.00820586271584034, 0.00818709951514999, 0.008136427340408167, 0.007856945507228374, 0.007847812181959549, 0.007728867388019959, 0.007880852557718754, 0.007674958712110917, 0.007351079334815343, 0.0074450102013846236, 0.007199455983936787, 0.007734083725760381, 0.007414118852466345, 0.007646821749707063, 0.007598405238240957, 0.007515538018196821, 0.007410779440154632, 0.007177518680691719, 0.007257438730448484, 0.007278702842692534, 0.00720455947642525]",0.06917680003428284,0.7040804493692211,0.08271439065213029,0.7545841839085545,0.1264064523844263,0.6953003802281369,0.2310571904800936,0.12940529249289673,0.7524618503477589,46.05699100391939,cuda
MITDB,172_MITDB_id_3_Medical_tr_27274_1st_27374,GADF,pvt_autoencoder_frozen,128,37,37,64,100,0.001,"[0.09928615689277649, 0.07149107530713081, 0.045425594225525855, 0.03168789763003588, 0.022485482320189477, 0.017727956548333167, 0.015284400526434183, 0.013532921392470598, 0.012772907689213752, 0.012724057771265507, 0.012625603750348092, 0.012969153095036745, 0.012051163706928492, 0.011574793700128793, 0.010567670641466975, 0.00969754948746413, 0.0104940346442163, 0.010527938371524215, 0.010309080453589558, 0.009531623963266612, 0.008859858801588415, 0.00832696738652885, 0.00803665742278099, 0.007723423978313803, 0.008104151859879494, 0.009136327914893628, 0.007761208619922399, 0.007554935710504651, 0.0071517417673021555, 0.006082272808998823, 0.00555439773015678, 0.005272329924628139]","[0.09462567170461018, 0.06588904807964961, 0.03565004592140516, 0.02583734008173148, 0.019420055051644642, 0.018363757369418938, 0.016627889747420948, 0.015651459495226543, 0.016627508215606213, 0.015086748947699865, 0.015475975970427195, 0.015164124158521494, 0.015280571766197681, 0.014255805561939875, 0.013927657157182693, 0.013931569953759512, 0.014004725652436415, 0.013328304203848043, 0.013779067744811377, 0.013533564284443855, 0.013438800039390722, 0.012973115779459476, 0.013212188457449278, 0.01354624330997467, 0.016129145398736, 0.014180205141504606, 0.013457965726653734, 0.013642027042806149, 0.01370650747170051, 0.013200419954955578, 0.013453970663249493, 0.013427279889583588]",0.08790162861957293,0.7233083677256072,0.10296782279346547,0.7725023522576351,0.16336156275854705,0.7173195208805438,0.324210526315789,0.18705340631898118,0.8296199055007458,23.91438518301584,cuda
